#Spectra: 1
Emin______Emax      -5.000000000000000E+01  5.000000000000000E+01
EminPole__EmaxPole   1.668794192520062E+01  3.928252005643981E+01
dE________Gamma      2.500000000000000E-02  1.000000000000000E-01
Energy               Re[0]                  Im[0]                
-5.000000000000E+01 -1.602712808576701E-03 -1.201036174813105E-05
-4.997500000000E+01 -1.699813563700477E-03 -1.208739788355934E-05
-4.995000000000E+01 -1.794175018327538E-03 -1.216252554115785E-05
-4.992500000000E+01 -1.884284089405635E-03 -1.223467128203568E-05
-4.990000000000E+01 -1.969042123564719E-03 -1.230305511102711E-05
-4.987500000000E+01 -2.047790868588211E-03 -1.236720899605520E-05
-4.985000000000E+01 -2.120267331265985E-03 -1.242694497458054E-05
-4.982500000000E+01 -2.186519288499884E-03 -1.248229535172074E-05
-4.980000000000E+01 -2.246811158283771E-03 -1.253344604201197E-05
-4.977500000000E+01 -2.301539619169107E-03 -1.258067679887897E-05
-4.975000000000E+01 -2.351167549449523E-03 -1.262431441130009E-05
-4.972500000000E+01 -2.396177322311999E-03 -1.266469960702871E-05
-4.970000000000E+01 -2.437040656543329E-03 -1.270216568180671E-05
-4.967500000000E+01 -2.474201016364840E-03 -1.273702601822588E-05
-4.965000000000E+01 -2.508064757184068E-03 -1.276956780095630E-05
-4.962500000000E+01 -2.538997963753086E-03 -1.280004976562779E-05
-4.960000000000E+01 -2.567326754270940E-03 -1.282870240425355E-05
-4.957500000000E+01 -2.593339530288080E-03 -1.285572955029642E-05
-4.955000000000E+01 -2.617290186800078E-03 -1.288131064507610E-05
-4.952500000000E+01 -2.639401673207161E-03 -1.290560325375075E-05
-4.950000000000E+01 -2.659869547836034E-03 -1.292874557763535E-05
-4.947500000000E+01 -2.678865331078633E-03 -1.295085882464006E-05
-4.945000000000E+01 -2.696539563204298E-03 -1.297204937117049E-05
-4.942500000000E+01 -2.713024533453903E-03 -1.299241069174302E-05
-4.940000000000E+01 -2.728436681671743E-03 -1.301202505711933E-05
-4.937500000000E+01 -2.742878692216279E-03 -1.303096501487643E-05
-4.935000000000E+01 -2.756441308559940E-03 -1.304929467247550E-05
-4.932500000000E+01 -2.769204899883660E-03 -1.306707080495464E-05
-4.930000000000E+01 -2.781240810622141E-03 -1.308434380913081E-05
-4.927500000000E+01 -2.792612521868895E-03 -1.310115852475241E-05
-4.925000000000E+01 -2.803376650735072E-03 -1.311755494105483E-05
-4.922500000000E+01 -2.813583810705438E-03 -1.313356880501693E-05
-4.920000000000E+01 -2.823279353054365E-03 -1.314923214550601E-05
-4.917500000000E+01 -2.832504006618112E-03 -1.316457372554640E-05
-4.915000000000E+01 -2.841294430741762E-03 -1.317961943318953E-05
-4.912500000000E+01 -2.849683694039277E-03 -1.319439261992639E-05
-4.910000000000E+01 -2.857701689719830E-03 -1.320891439424682E-05
-4.907500000000E+01 -2.865375496614298E-03 -1.322320387680443E-05
-4.905000000000E+01 -2.872729693656080E-03 -1.323727842267277E-05
-4.902500000000E+01 -2.879786634399257E-03 -1.325115381534760E-05
-4.900000000000E+01 -2.886566687166301E-03 -1.326484443644938E-05
-4.897500000000E+01 -2.893088445579371E-03 -1.327836341448885E-05
-4.895000000000E+01 -2.899368913522003E-03 -1.329172275555720E-05
-4.892500000000E+01 -2.905423667981344E-03 -1.330493345837990E-05
-4.890000000000E+01 -2.911267002716183E-03 -1.331800561581743E-05
-4.887500000000E+01 -2.916912055269900E-03 -1.333094850459369E-05
-4.885000000000E+01 -2.922370919487025E-03 -1.334377066477914E-05
-4.882500000000E+01 -2.927654745385992E-03 -1.335647997033684E-05
-4.880000000000E+01 -2.932773827982073E-03 -1.336908369186078E-05
-4.877500000000E+01 -2.937737686433545E-03 -1.338158855247453E-05
-4.875000000000E+01 -2.942555134696961E-03 -1.339400077773058E-05
-4.872500000000E+01 -2.947234344717519E-03 -1.340632614023479E-05
-4.870000000000E+01 -2.951782903043687E-03 -1.341856999962462E-05
-4.867500000000E+01 -2.956207861638572E-03 -1.343073733844678E-05
-4.865000000000E+01 -2.960515783560050E-03 -1.344283279441025E-05
-4.862500000000E+01 -2.964712784095869E-03 -1.345486068942788E-05
-4.860000000000E+01 -2.968804567865519E-03 -1.346682505580893E-05
-4.857500000000E+01 -2.972796462336895E-03 -1.347872965991960E-05
-4.855000000000E+01 -2.976693448150627E-03 -1.349057802358749E-05
-4.852500000000E+01 -2.980500186596997E-03 -1.350237344349628E-05
-4.850000000000E+01 -2.984221044549119E-03 -1.351411900878280E-05
-4.847500000000E+01 -2.987860117119984E-03 -1.352581761702690E-05
-4.845000000000E+01 -2.991421248279352E-03 -1.353747198880077E-05
-4.842500000000E+01 -2.994908049640032E-03 -1.354908468092531E-05
-4.840000000000E+01 -2.998323917597892E-03 -1.356065809856425E-05
-4.837500000000E+01 -3.001672048990539E-03 -1.357219450627183E-05
-4.835000000000E+01 -3.004955455420005E-03 -1.358369603809801E-05
-4.832500000000E+01 -3.008176976369934E-03 -1.359516470684186E-05
-4.830000000000E+01 -3.011339291232616E-03 -1.360660241253560E-05
-4.827500000000E+01 -3.014444930349304E-03 -1.361801095023223E-05
-4.825000000000E+01 -3.017496285156504E-03 -1.362939201716194E-05
-4.822500000000E+01 -3.020495617520562E-03 -1.364074721931534E-05
-4.820000000000E+01 -3.023445068335035E-03 -1.365207807750700E-05
-4.817500000000E+01 -3.026346665447323E-03 -1.366338603296465E-05
-4.815000000000E+01 -3.029202330974186E-03 -1.367467245248817E-05
-4.812500000000E+01 -3.032013888060453E-03 -1.368593863321471E-05
-4.810000000000E+01 -3.034783067129040E-03 -1.369718580702546E-05
-4.807500000000E+01 -3.037511511666318E-03 -1.370841514462421E-05
-4.805000000000E+01 -3.040200783582310E-03 -1.371962775931606E-05
-4.802500000000E+01 -3.042852368181536E-03 -1.373082471051147E-05
-4.800000000000E+01 -3.045467678776868E-03 -1.374200700697829E-05
-4.797500000000E+01 -3.048048060975832E-03 -1.375317560986300E-05
-4.795000000000E+01 -3.050594796666073E-03 -1.376433143549917E-05
-4.792500000000E+01 -3.053109107723917E-03 -1.377547535802141E-05
-4.790000000000E+01 -3.055592159468417E-03 -1.378660821179912E-05
-4.787500000000E+01 -3.058045063880964E-03 -1.379773079370510E-05
-4.785000000000E+01 -3.060468882608258E-03 -1.380884386523153E-05
-4.782500000000E+01 -3.062864629765875E-03 -1.381994815446525E-05
-4.780000000000E+01 -3.065233274557404E-03 -1.383104435793261E-05
-4.777500000000E+01 -3.067575743723172E-03 -1.384213314232478E-05
-4.775000000000E+01 -3.069892923831018E-03 -1.385321514611145E-05
-4.772500000000E+01 -3.072185663421429E-03 -1.386429098105140E-05
-4.770000000000E+01 -3.074454775016936E-03 -1.387536123360801E-05
-4.767500000000E+01 -3.076701037006199E-03 -1.388642646627631E-05
-4.765000000000E+01 -3.078925195411537E-03 -1.389748721882734E-05
-4.762500000000E+01 -3.081127965548203E-03 -1.390854400947681E-05
-4.760000000000E+01 -3.083310033583080E-03 -1.391959733598275E-05
-4.757500000000E+01 -3.085472057999703E-03 -1.393064767667665E-05
-4.755000000000E+01 -3.087614670976358E-03 -1.394169549143411E-05
-4.752500000000E+01 -3.089738479682773E-03 -1.395274122258746E-05
-4.750000000000E+01 -3.091844067501238E-03 -1.396378529578556E-05
-4.747500000000E+01 -3.093931995177364E-03 -1.397482812080360E-05
-4.745000000000E+01 -3.096002801904538E-03 -1.398587009230659E-05
-4.742500000000E+01 -3.098057006347106E-03 -1.399691159056961E-05
-4.740000000000E+01 -3.100095107606162E-03 -1.400795298215718E-05
-4.737500000000E+01 -3.102117586131165E-03 -1.401899462056532E-05
-4.735000000000E+01 -3.104124904581510E-03 -1.403003684682727E-05
-4.732500000000E+01 -3.106117508640951E-03 -1.404107999008689E-05
-4.730000000000E+01 -3.108095827787611E-03 -1.405212436814048E-05
-4.727500000000E+01 -3.110060276022928E-03 -1.406317028794962E-05
-4.725000000000E+01 -3.112011252561457E-03 -1.407421804612623E-05
-4.722500000000E+01 -3.113949142484455E-03 -1.408526792939272E-05
-4.720000000000E+01 -3.115874317359003E-03 -1.409632021501729E-05
-4.717500000000E+01 -3.117787135825160E-03 -1.410737517122704E-05
-4.715000000000E+01 -3.119687944152789E-03 -1.411843305759967E-05
-4.712500000000E+01 -3.121577076769959E-03 -1.412949412543483E-05
-4.710000000000E+01 -3.123454856764511E-03 -1.414055861810737E-05
-4.707500000000E+01 -3.125321596360609E-03 -1.415162677140190E-05
-4.705000000000E+01 -3.127177597371226E-03 -1.416269881383165E-05
-4.702500000000E+01 -3.129023151628667E-03 -1.417377496694055E-05
-4.700000000000E+01 -3.130858541393589E-03 -1.418485544559117E-05
-4.697500000000E+01 -3.132684039744441E-03 -1.419594045823863E-05
-4.695000000000E+01 -3.134499910947842E-03 -1.420703020719076E-05
-4.692500000000E+01 -3.136306410811491E-03 -1.421812488885631E-05
-4.690000000000E+01 -3.138103787019993E-03 -1.422922469398109E-05
-4.687500000000E+01 -3.139892279455191E-03 -1.424032980787309E-05
-4.685000000000E+01 -3.141672120501305E-03 -1.425144041061686E-05
-4.682500000000E+01 -3.143443535335848E-03 -1.426255667727839E-05
-4.680000000000E+01 -3.145206742207344E-03 -1.427367877809982E-05
-4.677500000000E+01 -3.146961952700185E-03 -1.428480687868582E-05
-4.675000000000E+01 -3.148709371987570E-03 -1.429594114018144E-05
-4.672500000000E+01 -3.150449199072828E-03 -1.430708171944154E-05
-4.670000000000E+01 -3.152181627020318E-03 -1.431822876919309E-05
-4.667500000000E+01 -3.153906843175765E-03 -1.432938243819016E-05
-4.665000000000E+01 -3.155625029376912E-03 -1.434054287136159E-05
-4.662500000000E+01 -3.157336362155169E-03 -1.435171020995309E-05
-4.660000000000E+01 -3.159041012928180E-03 -1.436288459166233E-05
-4.657500000000E+01 -3.160739148184485E-03 -1.437406615076854E-05
-4.655000000000E+01 -3.162430929659741E-03 -1.438525501825678E-05
-4.652500000000E+01 -3.164116514506007E-03 -1.439645132193624E-05
-4.650000000000E+01 -3.165796055453479E-03 -1.440765518655440E-05
-4.647500000000E+01 -3.167469700965571E-03 -1.441886673390576E-05
-4.645000000000E+01 -3.169137595387578E-03 -1.443008608293611E-05
-4.642500000000E+01 -3.170799879089098E-03 -1.444131334984299E-05
-4.640000000000E+01 -3.172456688600661E-03 -1.445254864817120E-05
-4.637500000000E+01 -3.174108156744757E-03 -1.446379208890521E-05
-4.635000000000E+01 -3.175754412761556E-03 -1.447504378055719E-05
-4.632500000000E+01 -3.177395582429525E-03 -1.448630382925194E-05
-4.630000000000E+01 -3.179031788181294E-03 -1.449757233880810E-05
-4.627500000000E+01 -3.180663149214776E-03 -1.450884941081629E-05
-4.625000000000E+01 -3.182289781600150E-03 -1.452013514471430E-05
-4.622500000000E+01 -3.183911798382293E-03 -1.453142963785882E-05
-4.620000000000E+01 -3.185529309679544E-03 -1.454273298559508E-05
-4.617500000000E+01 -3.187142422778427E-03 -1.455404528132313E-05
-4.615000000000E+01 -3.188751242224848E-03 -1.456536661656210E-05
-4.612500000000E+01 -3.190355869911707E-03 -1.457669708101147E-05
-4.610000000000E+01 -3.191956405163233E-03 -1.458803676261053E-05
-4.607500000000E+01 -3.193552944816202E-03 -1.459938574759546E-05
-4.605000000000E+01 -3.195145583297895E-03 -1.461074412055373E-05
-4.602500000000E+01 -3.196734412701382E-03 -1.462211196447725E-05
-4.600000000000E+01 -3.198319522857890E-03 -1.463348936081326E-05
-4.597500000000E+01 -3.199901001406455E-03 -1.464487638951300E-05
-4.595000000000E+01 -3.201478933861130E-03 -1.465627312907905E-05
-4.592500000000E+01 -3.203053403675780E-03 -1.466767965661083E-05
-4.590000000000E+01 -3.204624492306343E-03 -1.467909604784826E-05
-4.587500000000E+01 -3.206192279270934E-03 -1.469052237721414E-05
-4.585000000000E+01 -3.207756842207928E-03 -1.470195871785468E-05
-4.582500000000E+01 -3.209318256931846E-03 -1.471340514167899E-05
-4.580000000000E+01 -3.210876597487201E-03 -1.472486171939664E-05
-4.577500000000E+01 -3.212431936200665E-03 -1.473632852055468E-05
-4.575000000000E+01 -3.213984343731156E-03 -1.474780561357252E-05
-4.572500000000E+01 -3.215533889118402E-03 -1.475929306577602E-05
-4.570000000000E+01 -3.217080639829702E-03 -1.477079094343062E-05
-4.567500000000E+01 -3.218624661805154E-03 -1.478229931177264E-05
-4.565000000000E+01 -3.220166019501207E-03 -1.479381823504050E-05
-4.562500000000E+01 -3.221704775932926E-03 -1.480534777650391E-05
-4.560000000000E+01 -3.223240992714626E-03 -1.481688799849254E-05
-4.557500000000E+01 -3.224774730099381E-03 -1.482843896242386E-05
-4.555000000000E+01 -3.226306047016885E-03 -1.484000072882975E-05
-4.552500000000E+01 -3.227835001110396E-03 -1.485157335738239E-05
-4.550000000000E+01 -3.229361648772235E-03 -1.486315690691919E-05
-4.547500000000E+01 -3.230886045178190E-03 -1.487475143546701E-05
-4.545000000000E+01 -3.232408244320794E-03 -1.488635700026560E-05
-4.542500000000E+01 -3.233928299041536E-03 -1.489797365779010E-05
-4.540000000000E+01 -3.235446261062018E-03 -1.490960146377309E-05
-4.537500000000E+01 -3.236962181013995E-03 -1.492124047322565E-05
-4.535000000000E+01 -3.238476108468716E-03 -1.493289074045791E-05
-4.532500000000E+01 -3.239988091965121E-03 -1.494455231909901E-05
-4.530000000000E+01 -3.241498179037100E-03 -1.495622526211617E-05
-4.527500000000E+01 -3.243006416240193E-03 -1.496790962183345E-05
-4.525000000000E+01 -3.244512849177039E-03 -1.497960544994985E-05
-4.522500000000E+01 -3.246017522522365E-03 -1.499131279755670E-05
-4.520000000000E+01 -3.247520480047072E-03 -1.500303171515446E-05
-4.517500000000E+01 -3.249021764641532E-03 -1.501476225266956E-05
-4.515000000000E+01 -3.250521418338304E-03 -1.502650445946991E-05
-4.512500000000E+01 -3.252019482334009E-03 -1.503825838438054E-05
-4.510000000000E+01 -3.253515997010560E-03 -1.505002407569870E-05
-4.507500000000E+01 -3.255011001955966E-03 -1.506180158120798E-05
-4.505000000000E+01 -3.256504535984113E-03 -1.507359094819296E-05
-4.502500000000E+01 -3.257996637154376E-03 -1.508539222345229E-05
-4.500000000000E+01 -3.259487342790324E-03 -1.509720545331239E-05
-4.497500000000E+01 -3.260976689498004E-03 -1.510903068364014E-05
-4.495000000000E+01 -3.262464713183786E-03 -1.512086795985544E-05
-4.492500000000E+01 -3.263951449071387E-03 -1.513271732694319E-05
-4.490000000000E+01 -3.265436931718802E-03 -1.514457882946531E-05
-4.487500000000E+01 -3.266921195034274E-03 -1.515645251157200E-05
-4.485000000000E+01 -3.268404272292297E-03 -1.516833841701290E-05
-4.482500000000E+01 -3.269886196148738E-03 -1.518023658914778E-05
-4.480000000000E+01 -3.271366998655799E-03 -1.519214707095732E-05
-4.477500000000E+01 -3.272846711276383E-03 -1.520406990505294E-05
-4.475000000000E+01 -3.274325364898159E-03 -1.521600513368689E-05
-4.472500000000E+01 -3.275802989847230E-03 -1.522795279876198E-05
-4.470000000000E+01 -3.277279615901263E-03 -1.523991294184064E-05
-4.467500000000E+01 -3.278755272302510E-03 -1.525188560415411E-05
-4.465000000000E+01 -3.280229987770144E-03 -1.526387082661159E-05
-4.462500000000E+01 -3.281703790512657E-03 -1.527586864980852E-05
-4.460000000000E+01 -3.283176708239529E-03 -1.528787911403472E-05
-4.457500000000E+01 -3.284648768172731E-03 -1.529990225928334E-05
-4.455000000000E+01 -3.286119997057988E-03 -1.531193812525788E-05
-4.452500000000E+01 -3.287590421175654E-03 -1.532398675138043E-05
-4.450000000000E+01 -3.289060066351295E-03 -1.533604817679901E-05
-4.447500000000E+01 -3.290528957965975E-03 -1.534812244039495E-05
-4.445000000000E+01 -3.291997120966249E-03 -1.536020958078971E-05
-4.442500000000E+01 -3.293464579874061E-03 -1.537230963635221E-05
-4.440000000000E+01 -3.294931358796108E-03 -1.538442264520534E-05
-4.437500000000E+01 -3.296397481433122E-03 -1.539654864523250E-05
-4.435000000000E+01 -3.297862971088915E-03 -1.540868767408408E-05
-4.432500000000E+01 -3.299327850679061E-03 -1.542083976918351E-05
-4.430000000000E+01 -3.300792142739581E-03 -1.543300496773363E-05
-4.427500000000E+01 -3.302255869435110E-03 -1.544518330672221E-05
-4.425000000000E+01 -3.303719052567017E-03 -1.545737482292814E-05
-4.422500000000E+01 -3.305181713581374E-03 -1.546957955292667E-05
-4.420000000000E+01 -3.306643873576573E-03 -1.548179753309498E-05
-4.417500000000E+01 -3.308105553310843E-03 -1.549402879961771E-05
-4.415000000000E+01 -3.309566773209534E-03 -1.550627338849184E-05
-4.412500000000E+01 -3.311027553372242E-03 -1.551853133553204E-05
-4.410000000000E+01 -3.312487913579731E-03 -1.553080267637544E-05
-4.407500000000E+01 -3.313947873300673E-03 -1.554308744648631E-05
-4.405000000000E+01 -3.315407451698313E-03 -1.555538568116140E-05
-4.402500000000E+01 -3.316866667636775E-03 -1.556769741553366E-05
-4.400000000000E+01 -3.318325539687383E-03 -1.558002268457717E-05
-4.397500000000E+01 -3.319784086134861E-03 -1.559236152311186E-05
-4.395000000000E+01 -3.321242324983080E-03 -1.560471396580690E-05
-4.392500000000E+01 -3.322700273961072E-03 -1.561708004718560E-05
-4.390000000000E+01 -3.324157950528572E-03 -1.562945980162909E-05
-4.387500000000E+01 -3.325615371881631E-03 -1.564185326338059E-05
-4.385000000000E+01 -3.327072554957926E-03 -1.565426046654893E-05
-4.382500000000E+01 -3.328529516442098E-03 -1.566668144511256E-05
-4.380000000000E+01 -3.329986272770864E-03 -1.567911623292326E-05
-4.377500000000E+01 -3.331442840138022E-03 -1.569156486370942E-05
-4.375000000000E+01 -3.332899234499335E-03 -1.570402737108015E-05
-4.372500000000E+01 -3.334355471577411E-03 -1.571650378852807E-05
-4.370000000000E+01 -3.335811566866172E-03 -1.572899414943317E-05
-4.367500000000E+01 -3.337267535635592E-03 -1.574149848706598E-05
-4.365000000000E+01 -3.338723392936086E-03 -1.575401683459045E-05
-4.362500000000E+01 -3.340179153602811E-03 -1.576654922506748E-05
-4.360000000000E+01 -3.341634832259955E-03 -1.577909569145805E-05
-4.357500000000E+01 -3.343090443324870E-03 -1.579165626662566E-05
-4.355000000000E+01 -3.344546001012113E-03 -1.580423098333994E-05
-4.352500000000E+01 -3.346001519337377E-03 -1.581681987427903E-05
-4.350000000000E+01 -3.347457012121416E-03 -1.582942297203256E-05
-4.347500000000E+01 -3.348912492993801E-03 -1.584204030910450E-05
-4.345000000000E+01 -3.350367975396502E-03 -1.585467191791585E-05
-4.342500000000E+01 -3.351823472587695E-03 -1.586731783080678E-05
-4.340000000000E+01 -3.353278997645085E-03 -1.587997808003988E-05
-4.337500000000E+01 -3.354734563469515E-03 -1.589265269780220E-05
-4.335000000000E+01 -3.356190182788162E-03 -1.590534171620801E-05
-4.332500000000E+01 -3.357645868157974E-03 -1.591804516730112E-05
-4.330000000000E+01 -3.359101631968832E-03 -1.593076308305695E-05
-4.327500000000E+01 -3.360557486446699E-03 -1.594349549538524E-05
-4.325000000000E+01 -3.362013443656677E-03 -1.595624243613203E-05
-4.322500000000E+01 -3.363469515506036E-03 -1.596900393708230E-05
-4.320000000000E+01 -3.364925713747158E-03 -1.598178002996132E-05
-4.317500000000E+01 -3.366382049980401E-03 -1.599457074643788E-05
-4.315000000000E+01 -3.367838535656938E-03 -1.600737611812505E-05
-4.312500000000E+01 -3.369295182081514E-03 -1.602019617658358E-05
-4.310000000000E+01 -3.370752000415042E-03 -1.603303095332276E-05
-4.307500000000E+01 -3.372209001677377E-03 -1.604588047980319E-05
-4.305000000000E+01 -3.373666196749859E-03 -1.605874478743820E-05
-4.302500000000E+01 -3.375123596377777E-03 -1.607162390759591E-05
-4.300000000000E+01 -3.376581211172864E-03 -1.608451787160105E-05
-4.297500000000E+01 -3.378039051615778E-03 -1.609742671073669E-05
-4.295000000000E+01 -3.379497128058370E-03 -1.611035045624618E-05
-4.292500000000E+01 -3.380955450726073E-03 -1.612328913933472E-05
-4.290000000000E+01 -3.382414029720142E-03 -1.613624279117115E-05
-4.287500000000E+01 -3.383872875019837E-03 -1.614921144288942E-05
-4.285000000000E+01 -3.385331996484719E-03 -1.616219512559061E-05
-4.282500000000E+01 -3.386791403856675E-03 -1.617519387034430E-05
-4.280000000000E+01 -3.388251106761916E-03 -1.618820770818995E-05
-4.277500000000E+01 -3.389711114713282E-03 -1.620123667013881E-05
-4.275000000000E+01 -3.391171437112000E-03 -1.621428078717518E-05
-4.272500000000E+01 -3.392632083249688E-03 -1.622734009025801E-05
-4.270000000000E+01 -3.394093062310405E-03 -1.624041461032240E-05
-4.267500000000E+01 -3.395554383372388E-03 -1.625350437828089E-05
-4.265000000000E+01 -3.397016055409923E-03 -1.626660942502493E-05
-4.262500000000E+01 -3.398478087295219E-03 -1.627972978142644E-05
-4.260000000000E+01 -3.399940487800066E-03 -1.629286547833862E-05
-4.257500000000E+01 -3.401403265597654E-03 -1.630601654659794E-05
