#Spectra: 1
Emin______Emax      -5.000000000000000E+01  5.000000000000000E+01
EminPole__EmaxPole   1.668794192520059E+01  3.928252005643944E+01
dE________Gamma      2.500000000000000E-02  1.000000000000000E-01
Energy               Re[0]                  Im[0]                
-5.000000000000E+01 -1.602712808582115E-03 -1.201036174817164E-05
-4.997500000000E+01 -1.699813563706234E-03 -1.208739788360022E-05
-4.995000000000E+01 -1.794175018333601E-03 -1.216252554119898E-05
-4.992500000000E+01 -1.884284089411988E-03 -1.223467128207704E-05
-4.990000000000E+01 -1.969042123571372E-03 -1.230305511106866E-05
-4.987500000000E+01 -2.047790868595128E-03 -1.236720899609699E-05
-4.985000000000E+01 -2.120267331273131E-03 -1.242694497462253E-05
-4.982500000000E+01 -2.186519288507279E-03 -1.248229535176293E-05
-4.980000000000E+01 -2.246811158291358E-03 -1.253344604205434E-05
-4.977500000000E+01 -2.301539619176888E-03 -1.258067679892151E-05
-4.975000000000E+01 -2.351167549457468E-03 -1.262431441134273E-05
-4.972500000000E+01 -2.396177322320092E-03 -1.266469960707150E-05
-4.970000000000E+01 -2.437040656551566E-03 -1.270216568184962E-05
-4.967500000000E+01 -2.474201016373197E-03 -1.273702601826892E-05
-4.965000000000E+01 -2.508064757192546E-03 -1.276956780099942E-05
-4.962500000000E+01 -2.538997963761671E-03 -1.280004976567106E-05
-4.960000000000E+01 -2.567326754279621E-03 -1.282870240429688E-05
-4.957500000000E+01 -2.593339530296845E-03 -1.285572955033989E-05
-4.955000000000E+01 -2.617290186808921E-03 -1.288131064511966E-05
-4.952500000000E+01 -2.639401673216066E-03 -1.290560325379436E-05
-4.950000000000E+01 -2.659869547845033E-03 -1.292874557767904E-05
-4.947500000000E+01 -2.678865331087685E-03 -1.295085882468380E-05
-4.945000000000E+01 -2.696539563213403E-03 -1.297204937121436E-05
-4.942500000000E+01 -2.713024533463060E-03 -1.299241069178691E-05
-4.940000000000E+01 -2.728436681680970E-03 -1.301202505716329E-05
-4.937500000000E+01 -2.742878692225556E-03 -1.303096501492049E-05
-4.935000000000E+01 -2.756441308569252E-03 -1.304929467251957E-05
-4.932500000000E+01 -2.769204899893028E-03 -1.306707080499881E-05
-4.930000000000E+01 -2.781240810631534E-03 -1.308434380917504E-05
-4.927500000000E+01 -2.792612521878335E-03 -1.310115852479668E-05
-4.925000000000E+01 -2.803376650744538E-03 -1.311755494109915E-05
-4.922500000000E+01 -2.813583810714941E-03 -1.313356880506129E-05
-4.920000000000E+01 -2.823279353063903E-03 -1.314923214555044E-05
-4.917500000000E+01 -2.832504006627681E-03 -1.316457372559085E-05
-4.915000000000E+01 -2.841294430751365E-03 -1.317961943323401E-05
-4.912500000000E+01 -2.849683694048889E-03 -1.319439261997102E-05
-4.910000000000E+01 -2.857701689729489E-03 -1.320891439429145E-05
-4.907500000000E+01 -2.865375496623987E-03 -1.322320387684913E-05
-4.905000000000E+01 -2.872729693665774E-03 -1.323727842271751E-05
-4.902500000000E+01 -2.879786634408979E-03 -1.325115381539235E-05
-4.900000000000E+01 -2.886566687176051E-03 -1.326484443649418E-05
-4.897500000000E+01 -2.893088445589150E-03 -1.327836341453372E-05
-4.895000000000E+01 -2.899368913531801E-03 -1.329172275560209E-05
-4.892500000000E+01 -2.905423667991161E-03 -1.330493345842486E-05
-4.890000000000E+01 -2.911267002726007E-03 -1.331800561586239E-05
-4.887500000000E+01 -2.916912055279745E-03 -1.333094850463875E-05
-4.885000000000E+01 -2.922370919496881E-03 -1.334377066482420E-05
-4.882500000000E+01 -2.927654745395883E-03 -1.335647997038203E-05
-4.880000000000E+01 -2.932773827991980E-03 -1.336908369190598E-05
-4.877500000000E+01 -2.937737686443460E-03 -1.338158855251971E-05
-4.875000000000E+01 -2.942555134706914E-03 -1.339400077777584E-05
-4.872500000000E+01 -2.947234344727484E-03 -1.340632614028005E-05
-4.870000000000E+01 -2.951782903053660E-03 -1.341856999966996E-05
-4.867500000000E+01 -2.956207861648559E-03 -1.343073733849220E-05
-4.865000000000E+01 -2.960515783570046E-03 -1.344283279445566E-05
-4.862500000000E+01 -2.964712784105881E-03 -1.345486068947332E-05
-4.860000000000E+01 -2.968804567875555E-03 -1.346682505585445E-05
-4.857500000000E+01 -2.972796462346930E-03 -1.347872965996515E-05
-4.855000000000E+01 -2.976693448160692E-03 -1.349057802363308E-05
-4.852500000000E+01 -2.980500186607074E-03 -1.350237344354193E-05
-4.850000000000E+01 -2.984221044559207E-03 -1.351411900882843E-05
-4.847500000000E+01 -2.987860117130072E-03 -1.352581761707261E-05
-4.845000000000E+01 -2.991421248289460E-03 -1.353747198884651E-05
-4.842500000000E+01 -2.994908049650162E-03 -1.354908468097110E-05
-4.840000000000E+01 -2.998323917608026E-03 -1.356065809861008E-05
-4.837500000000E+01 -3.001672049000673E-03 -1.357219450631772E-05
-4.835000000000E+01 -3.004955455430149E-03 -1.358369603814392E-05
-4.832500000000E+01 -3.008176976380088E-03 -1.359516470688779E-05
-4.830000000000E+01 -3.011339291242792E-03 -1.360660241258156E-05
-4.827500000000E+01 -3.014444930359487E-03 -1.361801095027827E-05
-4.825000000000E+01 -3.017496285166699E-03 -1.362939201720800E-05
-4.822500000000E+01 -3.020495617530766E-03 -1.364074721936145E-05
-4.820000000000E+01 -3.023445068345259E-03 -1.365207807755313E-05
-4.817500000000E+01 -3.026346665457550E-03 -1.366338603301079E-05
-4.815000000000E+01 -3.029202330984427E-03 -1.367467245253437E-05
-4.812500000000E+01 -3.032013888070709E-03 -1.368593863326100E-05
-4.810000000000E+01 -3.034783067139284E-03 -1.369718580707176E-05
-4.807500000000E+01 -3.037511511676588E-03 -1.370841514467058E-05
-4.805000000000E+01 -3.040200783592579E-03 -1.371962775936241E-05
-4.802500000000E+01 -3.042852368191803E-03 -1.373082471055787E-05
-4.800000000000E+01 -3.045467678787160E-03 -1.374200700702475E-05
-4.797500000000E+01 -3.048048060986137E-03 -1.375317560990944E-05
-4.795000000000E+01 -3.050594796676390E-03 -1.376433143554569E-05
-4.792500000000E+01 -3.053109107734226E-03 -1.377547535806795E-05
-4.790000000000E+01 -3.055592159478738E-03 -1.378660821184569E-05
-4.787500000000E+01 -3.058045063891304E-03 -1.379773079375170E-05
-4.785000000000E+01 -3.060468882618596E-03 -1.380884386527821E-05
-4.782500000000E+01 -3.062864629776220E-03 -1.381994815451195E-05
-4.780000000000E+01 -3.065233274567769E-03 -1.383104435797935E-05
-4.777500000000E+01 -3.067575743733529E-03 -1.384213314237159E-05
-4.775000000000E+01 -3.069892923841397E-03 -1.385321514615829E-05
-4.772500000000E+01 -3.072185663431815E-03 -1.386429098109824E-05
-4.770000000000E+01 -3.074454775027323E-03 -1.387536123365492E-05
-4.767500000000E+01 -3.076701037016590E-03 -1.388642646632322E-05
-4.765000000000E+01 -3.078925195421940E-03 -1.389748721887430E-05
-4.762500000000E+01 -3.081127965558612E-03 -1.390854400952383E-05
-4.760000000000E+01 -3.083310033593476E-03 -1.391959733602977E-05
-4.757500000000E+01 -3.085472058010130E-03 -1.393064767672375E-05
-4.755000000000E+01 -3.087614670986776E-03 -1.394169549148123E-05
-4.752500000000E+01 -3.089738479693201E-03 -1.395274122263463E-05
-4.750000000000E+01 -3.091844067511700E-03 -1.396378529583276E-05
-4.747500000000E+01 -3.093931995187832E-03 -1.397482812085082E-05
-4.745000000000E+01 -3.096002801915004E-03 -1.398587009235383E-05
-4.742500000000E+01 -3.098057006357589E-03 -1.399691159061690E-05
-4.740000000000E+01 -3.100095107616638E-03 -1.400795298220456E-05
-4.737500000000E+01 -3.102117586141638E-03 -1.401899462061272E-05
-4.735000000000E+01 -3.104124904592002E-03 -1.403003684687467E-05
-4.732500000000E+01 -3.106117508651452E-03 -1.404107999013431E-05
-4.730000000000E+01 -3.108095827798117E-03 -1.405212436818796E-05
-4.727500000000E+01 -3.110060276033438E-03 -1.406317028799713E-05
-4.725000000000E+01 -3.112011252571974E-03 -1.407421804617378E-05
-4.722500000000E+01 -3.113949142494985E-03 -1.408526792944030E-05
-4.720000000000E+01 -3.115874317369528E-03 -1.409632021506489E-05
-4.717500000000E+01 -3.117787135835698E-03 -1.410737517127469E-05
-4.715000000000E+01 -3.119687944163323E-03 -1.411843305764736E-05
-4.712500000000E+01 -3.121577076780504E-03 -1.412949412548260E-05
-4.710000000000E+01 -3.123454856775054E-03 -1.414055861815515E-05
-4.707500000000E+01 -3.125321596371152E-03 -1.415162677144978E-05
-4.705000000000E+01 -3.127177597381784E-03 -1.416269881387952E-05
-4.702500000000E+01 -3.129023151639247E-03 -1.417377496698839E-05
-4.700000000000E+01 -3.130858541404169E-03 -1.418485544563915E-05
-4.697500000000E+01 -3.132684039755017E-03 -1.419594045828665E-05
-4.695000000000E+01 -3.134499910958439E-03 -1.420703020723877E-05
-4.692500000000E+01 -3.136306410822083E-03 -1.421812488890434E-05
-4.690000000000E+01 -3.138103787030593E-03 -1.422922469402918E-05
-4.687500000000E+01 -3.139892279465797E-03 -1.424032980792120E-05
-4.685000000000E+01 -3.141672120511910E-03 -1.425144041066502E-05
-4.682500000000E+01 -3.143443535346462E-03 -1.426255667732662E-05
-4.680000000000E+01 -3.145206742217957E-03 -1.427367877814805E-05
-4.677500000000E+01 -3.146961952710820E-03 -1.428480687873410E-05
-4.675000000000E+01 -3.148709371998195E-03 -1.429594114022974E-05
-4.672500000000E+01 -3.150449199083473E-03 -1.430708171948989E-05
-4.670000000000E+01 -3.152181627030971E-03 -1.431822876924150E-05
-4.667500000000E+01 -3.153906843186408E-03 -1.432938243823852E-05
-4.665000000000E+01 -3.155625029387567E-03 -1.434054287141004E-05
-4.662500000000E+01 -3.157336362165847E-03 -1.435171021000158E-05
-4.660000000000E+01 -3.159041012938867E-03 -1.436288459171085E-05
-4.657500000000E+01 -3.160739148195165E-03 -1.437406615081712E-05
-4.655000000000E+01 -3.162430929670426E-03 -1.438525501830538E-05
-4.652500000000E+01 -3.164116514516695E-03 -1.439645132198490E-05
-4.650000000000E+01 -3.165796055464182E-03 -1.440765518660309E-05
-4.647500000000E+01 -3.167469700976277E-03 -1.441886673395449E-05
-4.645000000000E+01 -3.169137595398282E-03 -1.443008608298485E-05
-4.642500000000E+01 -3.170799879099804E-03 -1.444131334989181E-05
-4.640000000000E+01 -3.172456688611386E-03 -1.445254864822007E-05
-4.637500000000E+01 -3.174108156755490E-03 -1.446379208895407E-05
-4.635000000000E+01 -3.175754412772296E-03 -1.447504378060612E-05
-4.632500000000E+01 -3.177395582440267E-03 -1.448630382930092E-05
-4.630000000000E+01 -3.179031788192014E-03 -1.449757233885709E-05
-4.627500000000E+01 -3.180663149225524E-03 -1.450884941086533E-05
-4.625000000000E+01 -3.182289781610907E-03 -1.452013514476334E-05
-4.622500000000E+01 -3.183911798393042E-03 -1.453142963790796E-05
-4.620000000000E+01 -3.185529309690293E-03 -1.454273298564426E-05
-4.617500000000E+01 -3.187142422789188E-03 -1.455404528137235E-05
-4.615000000000E+01 -3.188751242235630E-03 -1.456536661661131E-05
-4.612500000000E+01 -3.190355869922486E-03 -1.457669708106072E-05
-4.610000000000E+01 -3.191956405174028E-03 -1.458803676265988E-05
-4.607500000000E+01 -3.193552944826988E-03 -1.459938574764481E-05
-4.605000000000E+01 -3.195145583308688E-03 -1.461074412060311E-05
-4.602500000000E+01 -3.196734412712171E-03 -1.462211196452666E-05
-4.600000000000E+01 -3.198319522868680E-03 -1.463348936086270E-05
-4.597500000000E+01 -3.199901001417249E-03 -1.464487638956246E-05
-4.595000000000E+01 -3.201478933871946E-03 -1.465627312912857E-05
-4.592500000000E+01 -3.203053403686599E-03 -1.466767965666039E-05
-4.590000000000E+01 -3.204624492317153E-03 -1.467909604789788E-05
-4.587500000000E+01 -3.206192279281742E-03 -1.469052237726377E-05
-4.585000000000E+01 -3.207756842218773E-03 -1.470195871790436E-05
-4.582500000000E+01 -3.209318256942674E-03 -1.471340514172865E-05
-4.580000000000E+01 -3.210876597498050E-03 -1.472486171944640E-05
-4.577500000000E+01 -3.212431936211512E-03 -1.473632852060452E-05
-4.575000000000E+01 -3.213984343742002E-03 -1.474780561362234E-05
-4.572500000000E+01 -3.215533889129264E-03 -1.475929306582592E-05
-4.570000000000E+01 -3.217080639840579E-03 -1.477079094348050E-05
-4.567500000000E+01 -3.218624661816029E-03 -1.478229931182263E-05
-4.565000000000E+01 -3.220166019512095E-03 -1.479381823509047E-05
-4.562500000000E+01 -3.221704775943805E-03 -1.480534777655396E-05
-4.560000000000E+01 -3.223240992725516E-03 -1.481688799854260E-05
-4.557500000000E+01 -3.224774730110276E-03 -1.482843896247399E-05
-4.555000000000E+01 -3.226306047027790E-03 -1.484000072887992E-05
-4.552500000000E+01 -3.227835001121293E-03 -1.485157335743260E-05
-4.550000000000E+01 -3.229361648783148E-03 -1.486315690696941E-05
-4.547500000000E+01 -3.230886045189111E-03 -1.487475143551727E-05
-4.545000000000E+01 -3.232408244331722E-03 -1.488635700031590E-05
-4.542500000000E+01 -3.233928299052468E-03 -1.489797365784042E-05
-4.540000000000E+01 -3.235446261072946E-03 -1.490960146382352E-05
-4.537500000000E+01 -3.236962181024932E-03 -1.492124047327607E-05
-4.535000000000E+01 -3.238476108479661E-03 -1.493289074050837E-05
-4.532500000000E+01 -3.239988091976064E-03 -1.494455231914949E-05
-4.530000000000E+01 -3.241498179048051E-03 -1.495622526216670E-05
-4.527500000000E+01 -3.243006416251150E-03 -1.496790962188403E-05
-4.525000000000E+01 -3.244512849188000E-03 -1.497960545000049E-05
-4.522500000000E+01 -3.246017522533323E-03 -1.499131279760736E-05
-4.520000000000E+01 -3.247520480058046E-03 -1.500303171520518E-05
-4.517500000000E+01 -3.249021764652525E-03 -1.501476225272034E-05
-4.515000000000E+01 -3.250521418349285E-03 -1.502650445952070E-05
-4.512500000000E+01 -3.252019482344992E-03 -1.503825838443134E-05
-4.510000000000E+01 -3.253515997021552E-03 -1.505002407574954E-05
-4.507500000000E+01 -3.255011001966954E-03 -1.506180158125892E-05
-4.505000000000E+01 -3.256504535995109E-03 -1.507359094824390E-05
-4.502500000000E+01 -3.257996637165385E-03 -1.508539222350327E-05
-4.500000000000E+01 -3.259487342801327E-03 -1.509720545336339E-05
-4.497500000000E+01 -3.260976689509019E-03 -1.510903068369121E-05
-4.495000000000E+01 -3.262464713194797E-03 -1.512086795990656E-05
-4.492500000000E+01 -3.263951449082419E-03 -1.513271732699433E-05
-4.490000000000E+01 -3.265436931729824E-03 -1.514457882951650E-05
-4.487500000000E+01 -3.266921195045316E-03 -1.515645251162321E-05
-4.485000000000E+01 -3.268404272303335E-03 -1.516833841706417E-05
-4.482500000000E+01 -3.269886196159786E-03 -1.518023658919906E-05
-4.480000000000E+01 -3.271366998666850E-03 -1.519214707100868E-05
-4.477500000000E+01 -3.272846711287433E-03 -1.520406990510432E-05
-4.475000000000E+01 -3.274325364909225E-03 -1.521600513373832E-05
-4.472500000000E+01 -3.275802989858289E-03 -1.522795279881344E-05
-4.470000000000E+01 -3.277279615912325E-03 -1.523991294189209E-05
-4.467500000000E+01 -3.278755272313582E-03 -1.525188560420566E-05
-4.465000000000E+01 -3.280229987781239E-03 -1.526387082666317E-05
-4.462500000000E+01 -3.281703790523744E-03 -1.527586864986011E-05
-4.460000000000E+01 -3.283176708250619E-03 -1.528787911408642E-05
-4.457500000000E+01 -3.284648768183837E-03 -1.529990225933507E-05
-4.455000000000E+01 -3.286119997069084E-03 -1.531193812530959E-05
-4.452500000000E+01 -3.287590421186763E-03 -1.532398675143224E-05
-4.450000000000E+01 -3.289060066362417E-03 -1.533604817685086E-05
-4.447500000000E+01 -3.290528957977073E-03 -1.534812244044680E-05
-4.445000000000E+01 -3.291997120977387E-03 -1.536020958084161E-05
-4.442500000000E+01 -3.293464579885195E-03 -1.537230963640416E-05
-4.440000000000E+01 -3.294931358807239E-03 -1.538442264525740E-05
-4.437500000000E+01 -3.296397481444274E-03 -1.539654864528451E-05
-4.435000000000E+01 -3.297862971100055E-03 -1.540868767413613E-05
-4.432500000000E+01 -3.299327850690207E-03 -1.542083976923560E-05
-4.430000000000E+01 -3.300792142750737E-03 -1.543300496778579E-05
-4.427500000000E+01 -3.302255869446264E-03 -1.544518330677439E-05
-4.425000000000E+01 -3.303719052578190E-03 -1.545737482298038E-05
-4.422500000000E+01 -3.305181713592536E-03 -1.546957955297894E-05
-4.420000000000E+01 -3.306643873587731E-03 -1.548179753314727E-05
-4.417500000000E+01 -3.308105553322022E-03 -1.549402879967008E-05
-4.415000000000E+01 -3.309566773220710E-03 -1.550627338854428E-05
-4.412500000000E+01 -3.311027553383421E-03 -1.551853133558448E-05
-4.410000000000E+01 -3.312487913590911E-03 -1.553080267642791E-05
-4.407500000000E+01 -3.313947873311871E-03 -1.554308744653884E-05
-4.405000000000E+01 -3.315407451709506E-03 -1.555538568121399E-05
-4.402500000000E+01 -3.316866667647978E-03 -1.556769741558621E-05
-4.400000000000E+01 -3.318325539698597E-03 -1.558002268462983E-05
-4.397500000000E+01 -3.319784086146076E-03 -1.559236152316456E-05
-4.395000000000E+01 -3.321242324994288E-03 -1.560471396585965E-05
-4.392500000000E+01 -3.322700273972284E-03 -1.561708004723843E-05
-4.390000000000E+01 -3.324157950539829E-03 -1.562945980168191E-05
-4.387500000000E+01 -3.325615371892875E-03 -1.564185326343343E-05
-4.385000000000E+01 -3.327072554969158E-03 -1.565426046660186E-05
-4.382500000000E+01 -3.328529516453349E-03 -1.566668144516554E-05
-4.380000000000E+01 -3.329986272782106E-03 -1.567911623297625E-05
-4.377500000000E+01 -3.331442840149284E-03 -1.569156486376245E-05
-4.375000000000E+01 -3.332899234510594E-03 -1.570402737113322E-05
-4.372500000000E+01 -3.334355471588676E-03 -1.571650378858119E-05
-4.370000000000E+01 -3.335811566877451E-03 -1.572899414948636E-05
-4.367500000000E+01 -3.337267535646867E-03 -1.574149848711917E-05
-4.365000000000E+01 -3.338723392947372E-03 -1.575401683464366E-05
-4.362500000000E+01 -3.340179153614104E-03 -1.576654922512082E-05
-4.360000000000E+01 -3.341634832271238E-03 -1.577909569151137E-05
-4.357500000000E+01 -3.343090443336176E-03 -1.579165626667902E-05
-4.355000000000E+01 -3.344546001023396E-03 -1.580423098339333E-05
-4.352500000000E+01 -3.346001519348682E-03 -1.581681987433246E-05
-4.350000000000E+01 -3.347457012132717E-03 -1.582942297208606E-05
-4.347500000000E+01 -3.348912493005105E-03 -1.584204030915806E-05
-4.345000000000E+01 -3.350367975407815E-03 -1.585467191796943E-05
-4.342500000000E+01 -3.351823472599011E-03 -1.586731783086040E-05
-4.340000000000E+01 -3.353278997656427E-03 -1.587997808009348E-05
-4.337500000000E+01 -3.354734563480856E-03 -1.589265269785590E-05
-4.335000000000E+01 -3.356190182799491E-03 -1.590534171626180E-05
-4.332500000000E+01 -3.357645868169321E-03 -1.591804516735490E-05
-4.330000000000E+01 -3.359101631980185E-03 -1.593076308311079E-05
-4.327500000000E+01 -3.360557486458051E-03 -1.594349549543911E-05
-4.325000000000E+01 -3.362013443668027E-03 -1.595624243618599E-05
-4.322500000000E+01 -3.363469515517394E-03 -1.596900393713626E-05
-4.320000000000E+01 -3.364925713758530E-03 -1.598178003001536E-05
-4.317500000000E+01 -3.366382049991771E-03 -1.599457074649191E-05
-4.315000000000E+01 -3.367838535668320E-03 -1.600737611817911E-05
-4.312500000000E+01 -3.369295182092881E-03 -1.602019617663768E-05
-4.310000000000E+01 -3.370752000426414E-03 -1.603303095337693E-05
-4.307500000000E+01 -3.372209001688788E-03 -1.604588047985741E-05
-4.305000000000E+01 -3.373666196761260E-03 -1.605874478749247E-05
-4.302500000000E+01 -3.375123596389172E-03 -1.607162390765024E-05
-4.300000000000E+01 -3.376581211184284E-03 -1.608451787165541E-05
-4.297500000000E+01 -3.378039051627188E-03 -1.609742671079112E-05
-4.295000000000E+01 -3.379497128069774E-03 -1.611035045630065E-05
-4.292500000000E+01 -3.380955450737482E-03 -1.612328913938923E-05
-4.290000000000E+01 -3.382414029731562E-03 -1.613624279122565E-05
-4.287500000000E+01 -3.383872875031270E-03 -1.614921144294401E-05
-4.285000000000E+01 -3.385331996496164E-03 -1.616219512564525E-05
-4.282500000000E+01 -3.386791403868112E-03 -1.617519387039896E-05
-4.280000000000E+01 -3.388251106773363E-03 -1.618820770824465E-05
-4.277500000000E+01 -3.389711114724739E-03 -1.620123667019356E-05
-4.275000000000E+01 -3.391171437123445E-03 -1.621428078722994E-05
-4.272500000000E+01 -3.392632083261147E-03 -1.622734009031287E-05
-4.270000000000E+01 -3.394093062321879E-03 -1.624041461037727E-05
-4.267500000000E+01 -3.395554383383853E-03 -1.625350437833582E-05
-4.265000000000E+01 -3.397016055421411E-03 -1.626660942507995E-05
-4.262500000000E+01 -3.398478087306693E-03 -1.627972978148146E-05
-4.260000000000E+01 -3.399940487811540E-03 -1.629286547839365E-05
-4.257500000000E+01 -3.401403265609137E-03 -1.630601654665303E-05
