#Spectra: 1
Emin______Emax      -5.000000000000000E+01  5.000000000000000E+01
EminPole__EmaxPole  -1.200555767287250E+01  1.487803711363387E+01
dE________Gamma      2.500000000000000E-02  1.000000000000000E-01
Energy               Re[0]                  Im[0]                
-5.000000000000E+01 -4.295895617179473E-03 -1.920108903870309E-04
-4.997500000000E+01 -4.366142376628071E-03 -1.923286158962745E-04
-4.995000000000E+01 -4.436293828710947E-03 -1.926467074646199E-04
-4.992500000000E+01 -4.506257976020351E-03 -1.929650541419921E-04
-4.990000000000E+01 -4.575944661856334E-03 -1.932835471544339E-04
-4.987500000000E+01 -4.645266275773823E-03 -1.936020807646512E-04
-4.985000000000E+01 -4.714138407786052E-03 -1.939205530705539E-04
-4.982500000000E+01 -4.782480439748960E-03 -1.942388667277859E-04
-4.980000000000E+01 -4.850216064683329E-03 -1.945569295849415E-04
-4.977500000000E+01 -4.917273727241354E-03 -1.948746552231392E-04
-4.975000000000E+01 -4.983586981070745E-03 -1.951919633947210E-04
-4.972500000000E+01 -5.049094761343180E-03 -1.955087803589115E-04
-4.970000000000E+01 -5.113741573088318E-03 -1.958250391151501E-04
-4.967500000000E+01 -5.177477598110949E-03 -1.961406795374024E-04
-4.965000000000E+01 -5.240258725106275E-03 -1.964556484150458E-04
-4.962500000000E+01 -5.302046509073513E-03 -1.967698994076601E-04
-4.960000000000E+01 -5.362808067245798E-03 -1.970833929224908E-04
-4.957500000000E+01 -5.422515919505442E-03 -1.973960959242260E-04
-4.955000000000E+01 -5.481147781656333E-03 -1.977079816872499E-04
-4.952500000000E+01 -5.538686320014284E-03 -1.980190295006386E-04
-4.950000000000E+01 -5.595118875597125E-03 -1.983292243359521E-04
-4.947500000000E+01 -5.650437165796491E-03 -1.986385564873997E-04
-4.945000000000E+01 -5.704636970843674E-03 -1.989470211932791E-04
-4.942500000000E+01 -5.757717811693722E-03 -1.992546182467208E-04
-4.940000000000E+01 -5.809682625188046E-03 -1.995613516028910E-04
-4.937500000000E+01 -5.860537441558282E-03 -1.998672289888023E-04
-4.935000000000E+01 -5.910291068534575E-03 -2.001722615209407E-04
-4.932500000000E+01 -5.958954785547713E-03 -2.004764633349295E-04
-4.930000000000E+01 -6.006542050786675E-03 -2.007798512306539E-04
-4.927500000000E+01 -6.053068223204972E-03 -2.010824443353524E-04
-4.925000000000E+01 -6.098550300968798E-03 -2.013842637865362E-04
-4.922500000000E+01 -6.143006677314696E-03 -2.016853324359142E-04
-4.920000000000E+01 -6.186456914329637E-03 -2.019856745749710E-04
-4.917500000000E+01 -6.228921534786798E-03 -2.022853156823552E-04
-4.915000000000E+01 -6.270421831855420E-03 -2.025842821928918E-04
-4.912500000000E+01 -6.310979696252071E-03 -2.028826012876937E-04
-4.910000000000E+01 -6.350617460204608E-03 -2.031803007046136E-04
-4.907500000000E+01 -6.389357757453982E-03 -2.034774085681175E-04
-4.905000000000E+01 -6.427223398414970E-03 -2.037739532375145E-04
-4.902500000000E+01 -6.464237259549588E-03 -2.040699631724045E-04
-4.900000000000E+01 -6.500422185969243E-03 -2.043654668141485E-04
-4.897500000000E+01 -6.535800906269669E-03 -2.046604924821725E-04
-4.895000000000E+01 -6.570395958608947E-03 -2.049550682838917E-04
-4.892500000000E+01 -6.604229627062795E-03 -2.052492220370996E-04
-4.890000000000E+01 -6.637323887324369E-03 -2.055429812036963E-04
-4.887500000000E+01 -6.669700360859655E-03 -2.058363728336581E-04
-4.885000000000E+01 -6.701380276678586E-03 -2.061294235182606E-04
-4.882500000000E+01 -6.732384439933355E-03 -2.064221593515888E-04
-4.880000000000E+01 -6.762733206611084E-03 -2.067146058994270E-04
-4.877500000000E+01 -6.792446463642393E-03 -2.070067881747505E-04
-4.875000000000E+01 -6.821543613801865E-03 -2.072987306190206E-04
-4.872500000000E+01 -6.850043564828585E-03 -2.075904570886118E-04
-4.870000000000E+01 -6.877964722247503E-03 -2.078819908457387E-04
-4.867500000000E+01 -6.905324985418572E-03 -2.081733545533053E-04
-4.865000000000E+01 -6.932141746386728E-03 -2.084645702731683E-04
-4.862500000000E+01 -6.958431891150477E-03 -2.087556594673334E-04
-4.860000000000E+01 -6.984211803001628E-03 -2.090466430016872E-04
-4.857500000000E+01 -7.009497367630644E-03 -2.093375411518734E-04
-4.855000000000E+01 -7.034303979721619E-03 -2.096283736109846E-04
-4.852500000000E+01 -7.058646550793113E-03 -2.099191594987817E-04
-4.850000000000E+01 -7.082539518069057E-03 -2.102099173721750E-04
-4.847500000000E+01 -7.105996854188624E-03 -2.105006652367214E-04
-4.845000000000E+01 -7.129032077587807E-03 -2.107914205589571E-04
-4.842500000000E+01 -7.151658263404468E-03 -2.110822002793755E-04
-4.840000000000E+01 -7.173888054779621E-03 -2.113730208258862E-04
-4.837500000000E+01 -7.195733674441634E-03 -2.116638981276370E-04
-4.835000000000E+01 -7.217206936476887E-03 -2.119548476290632E-04
-4.832500000000E+01 -7.238319258202813E-03 -2.122458843040726E-04
-4.830000000000E+01 -7.259081672071460E-03 -2.125370226702819E-04
-4.827500000000E+01 -7.279504837541215E-03 -2.128282768032083E-04
-4.825000000000E+01 -7.299599052865151E-03 -2.131196603503898E-04
-4.822500000000E+01 -7.319374266751495E-03 -2.134111865453325E-04
-4.820000000000E+01 -7.338840089858868E-03 -2.137028682212897E-04
-4.817500000000E+01 -7.358005806096313E-03 -2.139947178247925E-04
-4.815000000000E+01 -7.376880383702616E-03 -2.142867474289308E-04
-4.812500000000E+01 -7.395472486084821E-03 -2.145789687463447E-04
-4.810000000000E+01 -7.413790482400024E-03 -2.148713931419134E-04
-4.807500000000E+01 -7.431842457868219E-03 -2.151640316451191E-04
-4.805000000000E+01 -7.449636223807041E-03 -2.154568949620856E-04
-4.802500000000E+01 -7.467179327382183E-03 -2.157499934872789E-04
-4.800000000000E+01 -7.484479061069770E-03 -2.160433373148532E-04
-4.797500000000E+01 -7.501542471828500E-03 -2.163369362496625E-04
-4.795000000000E+01 -7.518376369981638E-03 -2.166307998179227E-04
-4.792500000000E+01 -7.534987337810550E-03 -2.169249372775226E-04
-4.790000000000E+01 -7.551381737861453E-03 -2.172193576279961E-04
-4.787500000000E+01 -7.567565720970503E-03 -2.175140696201618E-04
-4.785000000000E+01 -7.583545234010109E-03 -2.178090817654196E-04
-4.782500000000E+01 -7.599326027363420E-03 -2.181044023447311E-04
-4.780000000000E+01 -7.614913662131047E-03 -2.184000394172707E-04
-4.777500000000E+01 -7.630313517077919E-03 -2.186960008287740E-04
-4.775000000000E+01 -7.645530795325818E-03 -2.189922942195755E-04
-4.772500000000E+01 -7.660570530798960E-03 -2.192889270323483E-04
-4.770000000000E+01 -7.675437594429464E-03 -2.195859065195690E-04
-4.767500000000E+01 -7.690136700130233E-03 -2.198832397506884E-04
-4.765000000000E+01 -7.704672410542181E-03 -2.201809336190363E-04
-4.762500000000E+01 -7.719049142563230E-03 -2.204789948484748E-04
-4.760000000000E+01 -7.733271172666330E-03 -2.207774299997812E-04
-4.757500000000E+01 -7.747342642013914E-03 -2.210762454768028E-04
-4.755000000000E+01 -7.761267561375264E-03 -2.213754475323690E-04
-4.752500000000E+01 -7.775049815854832E-03 -2.216750422739697E-04
-4.750000000000E+01 -7.788693169437186E-03 -2.219750356692285E-04
-4.747500000000E+01 -7.802201269356384E-03 -2.222754335511548E-04
-4.745000000000E+01 -7.815577650295601E-03 -2.225762416231935E-04
-4.742500000000E+01 -7.828825738423804E-03 -2.228774654640847E-04
-4.740000000000E+01 -7.841948855275782E-03 -2.231791105325270E-04
-4.737500000000E+01 -7.854950221480797E-03 -2.234811821716720E-04
-4.735000000000E+01 -7.867832960347064E-03 -2.237836856134285E-04
-4.732500000000E+01 -7.880600101306586E-03 -2.240866259826184E-04
-4.730000000000E+01 -7.893254583226164E-03 -2.243900083009579E-04
-4.727500000000E+01 -7.905799257590015E-03 -2.246938374908884E-04
-4.725000000000E+01 -7.918236891559453E-03 -2.249981183792668E-04
-4.722500000000E+01 -7.930570170913595E-03 -2.253028557009015E-04
-4.720000000000E+01 -7.942801702876668E-03 -2.256080541019644E-04
-4.717500000000E+01 -7.954934018836414E-03 -2.259137181432633E-04
-4.715000000000E+01 -7.966969576957399E-03 -2.262198523033925E-04
-4.712500000000E+01 -7.978910764694869E-03 -2.265264609817642E-04
-4.710000000000E+01 -7.990759901210731E-03 -2.268335485015223E-04
-4.707500000000E+01 -8.002519239698622E-03 -2.271411191123457E-04
-4.705000000000E+01 -8.014190969619323E-03 -2.274491769931448E-04
-4.702500000000E+01 -8.025777218851620E-03 -2.277577262546614E-04
-4.700000000000E+01 -8.037280055761181E-03 -2.280667709419598E-04
-4.697500000000E+01 -8.048701491191645E-03 -2.283763150368377E-04
-4.695000000000E+01 -8.060043480379970E-03 -2.286863624601380E-04
-4.692500000000E+01 -8.071307924800399E-03 -2.289969170739724E-04
-4.690000000000E+01 -8.082496673938712E-03 -2.293079826838741E-04
-4.687500000000E+01 -8.093611527000683E-03 -2.296195630408572E-04
-4.685000000000E+01 -8.104654234556455E-03 -2.299316618434105E-04
-4.682500000000E+01 -8.115626500124398E-03 -2.302442827394121E-04
-4.680000000000E+01 -8.126529981695553E-03 -2.305574293279746E-04
-4.677500000000E+01 -8.137366293203338E-03 -2.308711051612266E-04
-4.675000000000E+01 -8.148137005937270E-03 -2.311853137460273E-04
-4.672500000000E+01 -8.158843649906889E-03 -2.315000585456185E-04
-4.670000000000E+01 -8.169487715154475E-03 -2.318153429812157E-04
-4.667500000000E+01 -8.180070653021213E-03 -2.321311704335467E-04
-4.665000000000E+01 -8.190593877366833E-03 -2.324475442443338E-04
-4.662500000000E+01 -8.201058765745369E-03 -2.327644677177214E-04
-4.660000000000E+01 -8.211466660539032E-03 -2.330819441216524E-04
-4.657500000000E+01 -8.221818870051275E-03 -2.333999766892019E-04
-4.655000000000E+01 -8.232116669560863E-03 -2.337185686198569E-04
-4.652500000000E+01 -8.242361302338762E-03 -2.340377230807593E-04
-4.650000000000E+01 -8.252553980628794E-03 -2.343574432078962E-04
-4.647500000000E+01 -8.262695886594342E-03 -2.346777321072602E-04
-4.645000000000E+01 -8.272788173230837E-03 -2.349985928559569E-04
-4.642500000000E+01 -8.282831965247631E-03 -2.353200285032896E-04
-4.640000000000E+01 -8.292828359918229E-03 -2.356420420717967E-04
-4.637500000000E+01 -8.302778427901565E-03 -2.359646365582526E-04
-4.635000000000E+01 -8.312683214034933E-03 -2.362878149346462E-04
-4.632500000000E+01 -8.322543738099377E-03 -2.366115801491131E-04
-4.630000000000E+01 -8.332360995559306E-03 -2.369359351268482E-04
-4.627500000000E+01 -8.342135958276703E-03 -2.372608827709797E-04
-4.625000000000E+01 -8.351869575200958E-03 -2.375864259634200E-04
-4.622500000000E+01 -8.361562773035975E-03 -2.379125675656847E-04
-4.620000000000E+01 -8.371216456884260E-03 -2.382393104196909E-04
-4.617500000000E+01 -8.380831510869545E-03 -2.385666573485198E-04
-4.615000000000E+01 -8.390408798738867E-03 -2.388946111571641E-04
-4.612500000000E+01 -8.399949164444585E-03 -2.392231746332489E-04
-4.610000000000E+01 -8.409453432707449E-03 -2.395523505477256E-04
-4.607500000000E+01 -8.418922409559944E-03 -2.398821416555495E-04
-4.605000000000E+01 -8.428356882873664E-03 -2.402125506963335E-04
-4.602500000000E+01 -8.437757622867744E-03 -2.405435803949786E-04
-4.600000000000E+01 -8.447125382602217E-03 -2.408752334622941E-04
-4.597500000000E+01 -8.456460898454209E-03 -2.412075125955832E-04
-4.595000000000E+01 -8.465764890579316E-03 -2.415404204792271E-04
-4.592500000000E+01 -8.475038063358498E-03 -2.418739597852440E-04
-4.590000000000E+01 -8.484281105830296E-03 -2.422081331738239E-04
-4.587500000000E+01 -8.493494692108956E-03 -2.425429432938616E-04
-4.585000000000E+01 -8.502679481790371E-03 -2.428783927834667E-04
-4.582500000000E+01 -8.511836120343999E-03 -2.432144842704524E-04
-4.580000000000E+01 -8.520965239493512E-03 -2.435512203728199E-04
-4.577500000000E+01 -8.530067457584715E-03 -2.438886036992285E-04
-4.575000000000E+01 -8.539143379942627E-03 -2.442266368494398E-04
-4.572500000000E+01 -8.548193599217218E-03 -2.445653224147632E-04
-4.570000000000E+01 -8.557218695718429E-03 -2.449046629784809E-04
-4.567500000000E+01 -8.566219237740928E-03 -2.452446611162604E-04
-4.565000000000E+01 -8.575195781879144E-03 -2.455853193965689E-04
-4.562500000000E+01 -8.584148873332441E-03 -2.459266403810462E-04
-4.560000000000E+01 -8.593079046201046E-03 -2.462686266249011E-04
-4.557500000000E+01 -8.601986823773070E-03 -2.466112806772738E-04
-4.555000000000E+01 -8.610872718803217E-03 -2.469546050816008E-04
-4.552500000000E+01 -8.619737233782673E-03 -2.472986023759604E-04
-4.550000000000E+01 -8.628580861201022E-03 -2.476432750934185E-04
-4.547500000000E+01 -8.637404083800700E-03 -2.479886257623522E-04
-4.545000000000E+01 -8.646207374823375E-03 -2.483346569067824E-04
-4.542500000000E+01 -8.654991198249775E-03 -2.486813710466807E-04
-4.540000000000E+01 -8.663756009032051E-03 -2.490287706982847E-04
-4.537500000000E+01 -8.672502253319159E-03 -2.493768583743799E-04
-4.535000000000E+01 -8.681230368676345E-03 -2.497256365846073E-04
-4.532500000000E+01 -8.689940784297287E-03 -2.500751078357319E-04
-4.530000000000E+01 -8.698633921211306E-03 -2.504252746319332E-04
-4.527500000000E+01 -8.707310192483553E-03 -2.507761394750593E-04
-4.525000000000E+01 -8.715970003410331E-03 -2.511277048649015E-04
-4.522500000000E+01 -8.724613751707962E-03 -2.514799732994403E-04
-4.520000000000E+01 -8.733241827697545E-03 -2.518329472750962E-04
-4.517500000000E+01 -8.741854614482720E-03 -2.521866292869846E-04
-4.515000000000E+01 -8.750452488124285E-03 -2.525410218291359E-04
-4.512500000000E+01 -8.759035817808869E-03 -2.528961273947364E-04
-4.510000000000E+01 -8.767604966012869E-03 -2.532519484763618E-04
-4.507500000000E+01 -8.776160288662422E-03 -2.536084875661825E-04
-4.505000000000E+01 -8.784702135288239E-03 -2.539657471561885E-04
-4.502500000000E+01 -8.793230849176903E-03 -2.543237297384039E-04
-4.500000000000E+01 -8.801746767517472E-03 -2.546824378050827E-04
-4.497500000000E+01 -8.810250221544155E-03 -2.550418738489245E-04
-4.495000000000E+01 -8.818741536675523E-03 -2.554020403632551E-04
-4.492500000000E+01 -8.827221032649005E-03 -2.557629398422310E-04
-4.490000000000E+01 -8.835689023653335E-03 -2.561245747810289E-04
-4.487500000000E+01 -8.844145818455506E-03 -2.564869476760211E-04
-4.485000000000E+01 -8.852591720525849E-03 -2.568500610249647E-04
-4.482500000000E+01 -8.861027028158931E-03 -2.572139173271717E-04
-4.480000000000E+01 -8.869452034591951E-03 -2.575785190836909E-04
-4.477500000000E+01 -8.877867028118908E-03 -2.579438687974655E-04
-4.475000000000E+01 -8.886272292203063E-03 -2.583099689735132E-04
-4.472500000000E+01 -8.894668105585420E-03 -2.586768221190777E-04
-4.470000000000E+01 -8.903054742390979E-03 -2.590444307437927E-04
-4.467500000000E+01 -8.911432472231869E-03 -2.594127973598379E-04
-4.465000000000E+01 -8.919801560307994E-03 -2.597819244821015E-04
-4.462500000000E+01 -8.928162267505179E-03 -2.601518146283085E-04
-4.460000000000E+01 -8.936514850490162E-03 -2.605224703191903E-04
-4.457500000000E+01 -8.944859561804163E-03 -2.608938940786234E-04
-4.455000000000E+01 -8.953196649953287E-03 -2.612660884337678E-04
-4.452500000000E+01 -8.961526359496753E-03 -2.616390559152070E-04
-4.450000000000E+01 -8.969848931133447E-03 -2.620127990570903E-04
-4.447500000000E+01 -8.978164601785261E-03 -2.623873203972665E-04
-4.445000000000E+01 -8.986473604679251E-03 -2.627626224774098E-04
-4.442500000000E+01 -8.994776169427215E-03 -2.631387078431602E-04
-4.440000000000E+01 -9.003072522103851E-03 -2.635155790442445E-04
-4.437500000000E+01 -9.011362885322312E-03 -2.638932386346026E-04
-4.435000000000E+01 -9.019647478308001E-03 -2.642716891725202E-04
-4.432500000000E+01 -9.027926516971235E-03 -2.646509332207365E-04
-4.430000000000E+01 -9.036200213977089E-03 -2.650309733465759E-04
-4.427500000000E+01 -9.044468778814331E-03 -2.654118121220620E-04
-4.425000000000E+01 -9.052732417862478E-03 -2.657934521240317E-04
-4.422500000000E+01 -9.060991334456817E-03 -2.661758959342566E-04
-4.420000000000E+01 -9.069245728952678E-03 -2.665591461395494E-04
-4.417500000000E+01 -9.077495798786977E-03 -2.669432053318764E-04
-4.415000000000E+01 -9.085741738539594E-03 -2.673280761084703E-04
-4.412500000000E+01 -9.093983739992435E-03 -2.677137610719371E-04
-4.410000000000E+01 -9.102221992187250E-03 -2.681002628303570E-04
-4.407500000000E+01 -9.110456681482176E-03 -2.684875839974067E-04
-4.405000000000E+01 -9.118687991606726E-03 -2.688757271924376E-04
-4.402500000000E+01 -9.126916103716232E-03 -2.692646950406053E-04
-4.400000000000E+01 -9.135141196443564E-03 -2.696544901729487E-04
-4.397500000000E+01 -9.143363445951364E-03 -2.700451152265052E-04
-4.395000000000E+01 -9.151583025981687E-03 -2.704365728443994E-04
-4.392500000000E+01 -9.159800107905161E-03 -2.708288656759498E-04
-4.390000000000E+01 -9.168014860768996E-03 -2.712219963767556E-04
-4.387500000000E+01 -9.176227451343364E-03 -2.716159676088034E-04
-4.385000000000E+01 -9.184438044167695E-03 -2.720107820405455E-04
-4.382500000000E+01 -9.192646801594713E-03 -2.724064423470139E-04
-4.380000000000E+01 -9.200853883834657E-03 -2.728029512098957E-04
-4.377500000000E+01 -9.209059448997452E-03 -2.732003113176272E-04
-4.375000000000E+01 -9.217263653134732E-03 -2.735985253654948E-04
-4.372500000000E+01 -9.225466650280312E-03 -2.739975960557122E-04
-4.370000000000E+01 -9.233668592490068E-03 -2.743975260975132E-04
-4.367500000000E+01 -9.241869629881345E-03 -2.747983182072464E-04
-4.365000000000E+01 -9.250069910670374E-03 -2.751999751084463E-04
-4.362500000000E+01 -9.258269581209655E-03 -2.756024995319375E-04
-4.360000000000E+01 -9.266468786024872E-03 -2.760058942159083E-04
-4.357500000000E+01 -9.274667667849689E-03 -2.764101619059986E-04
-4.355000000000E+01 -9.282866367661317E-03 -2.768153053553848E-04
-4.352500000000E+01 -9.291065024714076E-03 -2.772213273248618E-04
-4.350000000000E+01 -9.299263776572900E-03 -2.776282305829263E-04
-4.347500000000E+01 -9.307462759145990E-03 -2.780360179058617E-04
-4.345000000000E+01 -9.315662106716523E-03 -2.784446920778135E-04
-4.342500000000E+01 -9.323861951974080E-03 -2.788542558908722E-04
-4.340000000000E+01 -9.332062426045106E-03 -2.792647121451616E-04
-4.337500000000E+01 -9.340263658522327E-03 -2.796760636489015E-04
-4.335000000000E+01 -9.348465777494928E-03 -2.800883132185059E-04
-4.332500000000E+01 -9.356668909576342E-03 -2.805014636786461E-04
-4.330000000000E+01 -9.364873179932729E-03 -2.809155178623435E-04
-4.327500000000E+01 -9.373078712310062E-03 -2.813304786110318E-04
-4.325000000000E+01 -9.381285629061296E-03 -2.817463487746485E-04
-4.322500000000E+01 -9.389494051172431E-03 -2.821631312116997E-04
-4.320000000000E+01 -9.397704098288287E-03 -2.825808287893432E-04
-4.317500000000E+01 -9.405915888737936E-03 -2.829994443834709E-04
-4.315000000000E+01 -9.414129539558880E-03 -2.834189808787703E-04
-4.312500000000E+01 -9.422345166521892E-03 -2.838394411688063E-04
-4.310000000000E+01 -9.430562884153870E-03 -2.842608281561021E-04
-4.307500000000E+01 -9.438782805761846E-03 -2.846831447522057E-04
-4.305000000000E+01 -9.447005043455213E-03 -2.851063938777648E-04
-4.302500000000E+01 -9.455229708168084E-03 -2.855305784626117E-04
-4.300000000000E+01 -9.463456909681041E-03 -2.859557014458197E-04
-4.297500000000E+01 -9.471686756642594E-03 -2.863817657757937E-04
-4.295000000000E+01 -9.479919356590129E-03 -2.868087744103254E-04
-4.292500000000E+01 -9.488154815970299E-03 -2.872367303166877E-04
-4.290000000000E+01 -9.496393240159147E-03 -2.876656364716931E-04
-4.287500000000E+01 -9.504634733481938E-03 -2.880954958617665E-04
-4.285000000000E+01 -9.512879399232335E-03 -2.885263114830230E-04
-4.282500000000E+01 -9.521127339691302E-03 -2.889580863413398E-04
-4.280000000000E+01 -9.529378656145962E-03 -2.893908234524240E-04
-4.277500000000E+01 -9.537633448907066E-03 -2.898245258418928E-04
-4.275000000000E+01 -9.545891817327701E-03 -2.902591965453314E-04
-4.272500000000E+01 -9.554153859820426E-03 -2.906948386083743E-04
-4.270000000000E+01 -9.562419673874180E-03 -2.911314550867857E-04
-4.267500000000E+01 -9.570689356071244E-03 -2.915690490465099E-04
-4.265000000000E+01 -9.578963002104217E-03 -2.920076235637551E-04
-4.262500000000E+01 -9.587240706791090E-03 -2.924471817250645E-04
-4.260000000000E+01 -9.595522564092261E-03 -2.928877266273902E-04
-4.257500000000E+01 -9.603808667125631E-03 -2.933292613781519E-04
