#Spectra: 1
Emin______Emax      -5.000000000000000E+01  5.000000000000000E+01
EminPole__EmaxPole  -1.200555767287250E+01  1.487803711363361E+01
dE________Gamma      2.500000000000000E-02  1.000000000000000E-01
Energy               Re[0]                  Im[0]                
-5.000000000000E+01 -4.295895617119696E-03 -1.920108903798256E-04
-4.997500000000E+01 -4.366142376567292E-03 -1.923286158890492E-04
-4.995000000000E+01 -4.436293828649187E-03 -1.926467074573752E-04
-4.992500000000E+01 -4.506257975957606E-03 -1.929650541347265E-04
-4.990000000000E+01 -4.575944661792573E-03 -1.932835471471480E-04
-4.987500000000E+01 -4.645266275709055E-03 -1.936020807573450E-04
-4.985000000000E+01 -4.714138407720337E-03 -1.939205530632269E-04
-4.982500000000E+01 -4.782480439682267E-03 -1.942388667204382E-04
-4.980000000000E+01 -4.850216064615690E-03 -1.945569295775737E-04
-4.977500000000E+01 -4.917273727172740E-03 -1.948746552157508E-04
-4.975000000000E+01 -4.983586981001139E-03 -1.951919633873118E-04
-4.972500000000E+01 -5.049094761272627E-03 -1.955087803514823E-04
-4.970000000000E+01 -5.113741573016865E-03 -1.958250391077003E-04
-4.967500000000E+01 -5.177477598038536E-03 -1.961406795299325E-04
-4.965000000000E+01 -5.240258725032948E-03 -1.964556484075550E-04
-4.962500000000E+01 -5.302046508999347E-03 -1.967698994001495E-04
-4.960000000000E+01 -5.362808067170752E-03 -1.970833929149582E-04
-4.957500000000E+01 -5.422515919429488E-03 -1.973960959166728E-04
-4.955000000000E+01 -5.481147781579524E-03 -1.977079816796771E-04
-4.952500000000E+01 -5.538686319936605E-03 -1.980190294930449E-04
-4.950000000000E+01 -5.595118875518616E-03 -1.983292243283373E-04
-4.947500000000E+01 -5.650437165717167E-03 -1.986385564797645E-04
-4.945000000000E+01 -5.704636970763510E-03 -1.989470211856233E-04
-4.942500000000E+01 -5.757717811612766E-03 -1.992546182390442E-04
-4.940000000000E+01 -5.809682625106318E-03 -1.995613515951937E-04
-4.937500000000E+01 -5.860537441475770E-03 -1.998672289810843E-04
-4.935000000000E+01 -5.910291068451362E-03 -2.001722615132020E-04
-4.932500000000E+01 -5.958954785463747E-03 -2.004764633271697E-04
-4.930000000000E+01 -6.006542050701975E-03 -2.007798512228740E-04
-4.927500000000E+01 -6.053068223119532E-03 -2.010824443275524E-04
-4.925000000000E+01 -6.098550300882698E-03 -2.013842637787145E-04
-4.922500000000E+01 -6.143006677227883E-03 -2.016853324280724E-04
-4.920000000000E+01 -6.186456914242129E-03 -2.019856745671080E-04
-4.917500000000E+01 -6.228921534698648E-03 -2.022853156744706E-04
-4.915000000000E+01 -6.270421831766615E-03 -2.025842821849875E-04
-4.912500000000E+01 -6.310979696162646E-03 -2.028826012797686E-04
-4.910000000000E+01 -6.350617460114541E-03 -2.031803006966670E-04
-4.907500000000E+01 -6.389357757363294E-03 -2.034774085601499E-04
-4.905000000000E+01 -6.427223398323678E-03 -2.037739532295260E-04
-4.902500000000E+01 -6.464237259457696E-03 -2.040699631643952E-04
-4.900000000000E+01 -6.500422185876756E-03 -2.043654668061183E-04
-4.897500000000E+01 -6.535800906176553E-03 -2.046604924741213E-04
-4.895000000000E+01 -6.570395958515322E-03 -2.049550682758185E-04
-4.892500000000E+01 -6.604229626968623E-03 -2.052492220290068E-04
-4.890000000000E+01 -6.637323887229621E-03 -2.055429811955818E-04
-4.887500000000E+01 -6.669700360764357E-03 -2.058363728255227E-04
-4.885000000000E+01 -6.701380276582805E-03 -2.061294235101047E-04
-4.882500000000E+01 -6.732384439837033E-03 -2.064221593434110E-04
-4.880000000000E+01 -6.762733206514235E-03 -2.067146058912276E-04
-4.877500000000E+01 -6.792446463545066E-03 -2.070067881665304E-04
-4.875000000000E+01 -6.821543613704037E-03 -2.072987306107791E-04
-4.872500000000E+01 -6.850043564730198E-03 -2.075904570803492E-04
-4.870000000000E+01 -6.877964722148666E-03 -2.078819908374547E-04
-4.867500000000E+01 -6.905324985319217E-03 -2.081733545449998E-04
-4.865000000000E+01 -6.932141746286965E-03 -2.084645702648407E-04
-4.862500000000E+01 -6.958431891050239E-03 -2.087556594589847E-04
-4.860000000000E+01 -6.984211802900865E-03 -2.090466429933172E-04
-4.857500000000E+01 -7.009497367529455E-03 -2.093375411434821E-04
-4.855000000000E+01 -7.034303979619970E-03 -2.096283736025710E-04
-4.852500000000E+01 -7.058646550691022E-03 -2.099191594903478E-04
-4.850000000000E+01 -7.082539517966523E-03 -2.102099173637189E-04
-4.847500000000E+01 -7.105996854085668E-03 -2.105006652282431E-04
-4.845000000000E+01 -7.129032077484419E-03 -2.107914205504571E-04
-4.842500000000E+01 -7.151658263300639E-03 -2.110822002708536E-04
-4.840000000000E+01 -7.173888054675365E-03 -2.113730208173430E-04
-4.837500000000E+01 -7.195733674336952E-03 -2.116638981190722E-04
-4.835000000000E+01 -7.217206936371806E-03 -2.119548476204769E-04
-4.832500000000E+01 -7.238319258097350E-03 -2.122458842954636E-04
-4.830000000000E+01 -7.259081671965599E-03 -2.125370226616506E-04
-4.827500000000E+01 -7.279504837434912E-03 -2.128282767945548E-04
-4.825000000000E+01 -7.299599052758489E-03 -2.131196603417142E-04
-4.822500000000E+01 -7.319374266644425E-03 -2.134111865366347E-04
-4.820000000000E+01 -7.338840089751397E-03 -2.137028682125687E-04
-4.817500000000E+01 -7.358005805988426E-03 -2.139947178160500E-04
-4.815000000000E+01 -7.376880383594409E-03 -2.142867474201658E-04
-4.812500000000E+01 -7.395472485976184E-03 -2.145789687375581E-04
-4.810000000000E+01 -7.413790482291044E-03 -2.148713931331038E-04
-4.807500000000E+01 -7.431842457758900E-03 -2.151640316362865E-04
-4.805000000000E+01 -7.449636223697336E-03 -2.154568949532311E-04
-4.802500000000E+01 -7.467179327272058E-03 -2.157499934784009E-04
-4.800000000000E+01 -7.484479060959321E-03 -2.160433373059516E-04
-4.797500000000E+01 -7.501542471717683E-03 -2.163369362407390E-04
-4.795000000000E+01 -7.518376369870461E-03 -2.166307998089769E-04
-4.792500000000E+01 -7.534987337698975E-03 -2.169249372685533E-04
-4.790000000000E+01 -7.551381737749555E-03 -2.172193576190042E-04
-4.787500000000E+01 -7.567565720858217E-03 -2.175140696111470E-04
-4.785000000000E+01 -7.583545233897530E-03 -2.178090817563819E-04
-4.782500000000E+01 -7.599326027250479E-03 -2.181044023356696E-04
-4.780000000000E+01 -7.614913662017731E-03 -2.184000394081871E-04
-4.777500000000E+01 -7.630313516964248E-03 -2.186960008196666E-04
-4.775000000000E+01 -7.645530795211815E-03 -2.189922942104446E-04
-4.772500000000E+01 -7.660570530684560E-03 -2.192889270231937E-04
-4.770000000000E+01 -7.675437594314741E-03 -2.195859065103920E-04
-4.767500000000E+01 -7.690136700015228E-03 -2.198832397414859E-04
-4.765000000000E+01 -7.704672410426827E-03 -2.201809336098116E-04
-4.762500000000E+01 -7.719049142447555E-03 -2.204789948392255E-04
-4.760000000000E+01 -7.733271172550317E-03 -2.207774299905087E-04
-4.757500000000E+01 -7.747342641897529E-03 -2.210762454675061E-04
-4.755000000000E+01 -7.761267561258561E-03 -2.213754475230477E-04
-4.752500000000E+01 -7.775049815737838E-03 -2.216750422646249E-04
-4.750000000000E+01 -7.788693169319850E-03 -2.219750356598603E-04
-4.747500000000E+01 -7.802201269238699E-03 -2.222754335417615E-04
-4.745000000000E+01 -7.815577650177619E-03 -2.225762416137766E-04
-4.742500000000E+01 -7.828825738305506E-03 -2.228774654546439E-04
-4.740000000000E+01 -7.841948855157151E-03 -2.231791105230613E-04
-4.737500000000E+01 -7.854950221361736E-03 -2.234811821621818E-04
-4.735000000000E+01 -7.867832960227738E-03 -2.237836856039143E-04
-4.732500000000E+01 -7.880600101186939E-03 -2.240866259730795E-04
-4.730000000000E+01 -7.893254583106126E-03 -2.243900082913943E-04
-4.727500000000E+01 -7.905799257469745E-03 -2.246938374813000E-04
-4.725000000000E+01 -7.918236891438835E-03 -2.249981183696542E-04
-4.722500000000E+01 -7.930570170792654E-03 -2.253028556912644E-04
-4.720000000000E+01 -7.942801702755398E-03 -2.256080540923022E-04
-4.717500000000E+01 -7.954934018714858E-03 -2.259137181335747E-04
-4.715000000000E+01 -7.966969576835563E-03 -2.262198522936797E-04
-4.712500000000E+01 -7.978910764572722E-03 -2.265264609720276E-04
-4.710000000000E+01 -7.990759901088246E-03 -2.268335484917589E-04
-4.707500000000E+01 -8.002519239575748E-03 -2.271411191025576E-04
-4.705000000000E+01 -8.014190969496154E-03 -2.274491769833314E-04
-4.702500000000E+01 -8.025777218728086E-03 -2.277577262448222E-04
-4.700000000000E+01 -8.037280055637438E-03 -2.280667709320951E-04
-4.697500000000E+01 -8.048701491067595E-03 -2.283763150269475E-04
-4.695000000000E+01 -8.060043480255640E-03 -2.286863624502227E-04
-4.692500000000E+01 -8.071307924675690E-03 -2.289969170640304E-04
-4.690000000000E+01 -8.082496673813711E-03 -2.293079826739071E-04
-4.687500000000E+01 -8.093611526875408E-03 -2.296195630308641E-04
-4.685000000000E+01 -8.104654234430818E-03 -2.299316618333920E-04
-4.682500000000E+01 -8.115626499998413E-03 -2.302442827293670E-04
-4.680000000000E+01 -8.126529981569354E-03 -2.305574293179033E-04
-4.677500000000E+01 -8.137366293076771E-03 -2.308711051511287E-04
-4.675000000000E+01 -8.148137005810501E-03 -2.311853137359038E-04
-4.672500000000E+01 -8.158843649779679E-03 -2.315000585354678E-04
-4.670000000000E+01 -8.169487715026940E-03 -2.318153429710391E-04
-4.667500000000E+01 -8.180070652893457E-03 -2.321311704233433E-04
-4.665000000000E+01 -8.190593877238708E-03 -2.324475442341043E-04
-4.662500000000E+01 -8.201058765616947E-03 -2.327644677074642E-04
-4.660000000000E+01 -8.211466660410241E-03 -2.330819441113692E-04
-4.657500000000E+01 -8.221818869922225E-03 -2.333999766788917E-04
-4.655000000000E+01 -8.232116669431503E-03 -2.337185686095201E-04
-4.652500000000E+01 -8.242361302209084E-03 -2.340377230703950E-04
-4.650000000000E+01 -8.252553980498829E-03 -2.343574431975051E-04
-4.647500000000E+01 -8.262695886464050E-03 -2.346777320968404E-04
-4.645000000000E+01 -8.272788173100254E-03 -2.349985928455107E-04
-4.642500000000E+01 -8.282831965116711E-03 -2.353200284928159E-04
-4.640000000000E+01 -8.292828359787051E-03 -2.356420420612952E-04
-4.637500000000E+01 -8.302778427770087E-03 -2.359646365477245E-04
-4.635000000000E+01 -8.312683213903119E-03 -2.362878149240899E-04
-4.632500000000E+01 -8.322543737967293E-03 -2.366115801385295E-04
-4.630000000000E+01 -8.332360995426889E-03 -2.369359351162366E-04
-4.627500000000E+01 -8.342135958143926E-03 -2.372608827603396E-04
-4.625000000000E+01 -8.351869575067917E-03 -2.375864259527510E-04
-4.622500000000E+01 -8.361562772902665E-03 -2.379125675549894E-04
-4.620000000000E+01 -8.371216456750647E-03 -2.382393104089668E-04
-4.617500000000E+01 -8.380831510735577E-03 -2.385666573377665E-04
-4.615000000000E+01 -8.390408798604526E-03 -2.388946111463827E-04
-4.612500000000E+01 -8.399949164310017E-03 -2.392231746224394E-04
-4.610000000000E+01 -8.409453432572531E-03 -2.395523505368874E-04
-4.607500000000E+01 -8.418922409424731E-03 -2.398821416446834E-04
-4.605000000000E+01 -8.428356882738111E-03 -2.402125506854380E-04
-4.602500000000E+01 -8.437757622731922E-03 -2.405435803840549E-04
-4.600000000000E+01 -8.447125382466095E-03 -2.408752334513411E-04
-4.597500000000E+01 -8.456460898317720E-03 -2.412075125846008E-04
-4.595000000000E+01 -8.465764890442559E-03 -2.415404204682156E-04
-4.592500000000E+01 -8.475038063221437E-03 -2.418739597742033E-04
-4.590000000000E+01 -8.484281105692914E-03 -2.422081331627533E-04
-4.587500000000E+01 -8.493494691971290E-03 -2.425429432827622E-04
-4.585000000000E+01 -8.502679481652337E-03 -2.428783927723375E-04
-4.582500000000E+01 -8.511836120205748E-03 -2.432144842592931E-04
-4.580000000000E+01 -8.520965239354909E-03 -2.435512203616314E-04
-4.577500000000E+01 -8.530067457445820E-03 -2.438886036880097E-04
-4.575000000000E+01 -8.539143379803348E-03 -2.442266368381911E-04
-4.572500000000E+01 -8.548193599077715E-03 -2.445653224034856E-04
-4.570000000000E+01 -8.557218695578557E-03 -2.449046629671718E-04
-4.567500000000E+01 -8.566219237600689E-03 -2.452446611049226E-04
-4.565000000000E+01 -8.575195781738683E-03 -2.455853193852003E-04
-4.562500000000E+01 -8.584148873191600E-03 -2.459266403696472E-04
-4.560000000000E+01 -8.593079046059859E-03 -2.462686266134720E-04
-4.557500000000E+01 -8.601986823631592E-03 -2.466112806658128E-04
-4.555000000000E+01 -8.610872718661487E-03 -2.469546050701104E-04
-4.552500000000E+01 -8.619737233640574E-03 -2.472986023644388E-04
-4.550000000000E+01 -8.628580861058664E-03 -2.476432750818660E-04
-4.547500000000E+01 -8.637404083657950E-03 -2.479886257507690E-04
-4.545000000000E+01 -8.646207374680298E-03 -2.483346568951664E-04
-4.542500000000E+01 -8.654991198106379E-03 -2.486813710350360E-04
-4.540000000000E+01 -8.663756008888414E-03 -2.490287706866070E-04
-4.537500000000E+01 -8.672502253175183E-03 -2.493768583626717E-04
-4.535000000000E+01 -8.681230368532002E-03 -2.497256365728666E-04
-4.532500000000E+01 -8.689940784152677E-03 -2.500751078239604E-04
-4.530000000000E+01 -8.698633921066286E-03 -2.504252746201288E-04
-4.527500000000E+01 -8.707310192338289E-03 -2.507761394632251E-04
-4.525000000000E+01 -8.715970003264722E-03 -2.511277048530337E-04
-4.522500000000E+01 -8.724613751562121E-03 -2.514799732875407E-04
-4.520000000000E+01 -8.733241827551277E-03 -2.518329472631649E-04
-4.517500000000E+01 -8.741854614336131E-03 -2.521866292750207E-04
-4.515000000000E+01 -8.750452487977387E-03 -2.525410218171392E-04
-4.512500000000E+01 -8.759035817661649E-03 -2.528961273827080E-04
-4.510000000000E+01 -8.767604965865382E-03 -2.532519484643007E-04
-4.507500000000E+01 -8.776160288514613E-03 -2.536084875540887E-04
-4.505000000000E+01 -8.784702135140031E-03 -2.539657471440619E-04
-4.502500000000E+01 -8.793230849028421E-03 -2.543237297262434E-04
-4.500000000000E+01 -8.801746767368671E-03 -2.546824377928887E-04
-4.497500000000E+01 -8.810250221395043E-03 -2.550418738366974E-04
-4.495000000000E+01 -8.818741536526035E-03 -2.554020403509958E-04
-4.492500000000E+01 -8.827221032499194E-03 -2.557629398299380E-04
-4.490000000000E+01 -8.835689023503219E-03 -2.561245747687025E-04
-4.487500000000E+01 -8.844145818305097E-03 -2.564869476636629E-04
-4.485000000000E+01 -8.852591720375010E-03 -2.568500610125708E-04
-4.482500000000E+01 -8.861027028007860E-03 -2.572139173147451E-04
-4.480000000000E+01 -8.869452034440492E-03 -2.575785190712303E-04
-4.477500000000E+01 -8.877867027967131E-03 -2.579438687849699E-04
-4.475000000000E+01 -8.886272292050915E-03 -2.583099689609837E-04
-4.472500000000E+01 -8.894668105432978E-03 -2.586768221065142E-04
-4.470000000000E+01 -8.903054742238162E-03 -2.590444307311940E-04
-4.467500000000E+01 -8.911432472078821E-03 -2.594127973472058E-04
-4.465000000000E+01 -8.919801560154584E-03 -2.597819244694336E-04
-4.462500000000E+01 -8.928162267351401E-03 -2.601518146156057E-04
-4.460000000000E+01 -8.936514850336030E-03 -2.605224703064527E-04
-4.457500000000E+01 -8.944859561649709E-03 -2.608938940658517E-04
-4.455000000000E+01 -8.953196649798444E-03 -2.612660884209605E-04
-4.452500000000E+01 -8.961526359341653E-03 -2.616390559023643E-04
-4.450000000000E+01 -8.969848930978047E-03 -2.620127990442130E-04
-4.447500000000E+01 -8.978164601629451E-03 -2.623873203843539E-04
-4.445000000000E+01 -8.986473604523039E-03 -2.627626224644614E-04
-4.442500000000E+01 -8.994776169270677E-03 -2.631387078301756E-04
-4.440000000000E+01 -9.003072521946999E-03 -2.635155790312243E-04
-4.437500000000E+01 -9.011362885165086E-03 -2.638932386215469E-04
-4.435000000000E+01 -9.019647478150481E-03 -2.642716891594274E-04
-4.432500000000E+01 -9.027926516813365E-03 -2.646509332076070E-04
-4.430000000000E+01 -9.036200213818851E-03 -2.650309733334105E-04
-4.427500000000E+01 -9.044468778655786E-03 -2.654118121088604E-04
-4.425000000000E+01 -9.052732417703557E-03 -2.657934521107929E-04
-4.422500000000E+01 -9.060991334297592E-03 -2.661758959209819E-04
-4.420000000000E+01 -9.069245728793095E-03 -2.665591461262364E-04
-4.417500000000E+01 -9.077495798627044E-03 -2.669432053185273E-04
-4.415000000000E+01 -9.085741738379253E-03 -2.673280760950838E-04
-4.412500000000E+01 -9.093983739831819E-03 -2.677137610585126E-04
-4.410000000000E+01 -9.102221992026279E-03 -2.681002628168974E-04
-4.407500000000E+01 -9.110456681320824E-03 -2.684875839839083E-04
-4.405000000000E+01 -9.118687991445062E-03 -2.688757271789029E-04
-4.402500000000E+01 -9.126916103554185E-03 -2.692646950270318E-04
-4.400000000000E+01 -9.135141196281199E-03 -2.696544901593363E-04
-4.397500000000E+01 -9.143363445788618E-03 -2.700451152128552E-04
-4.395000000000E+01 -9.151583025818597E-03 -2.704365728307112E-04
-4.392500000000E+01 -9.159800107741749E-03 -2.708288656622232E-04
-4.390000000000E+01 -9.168014860605178E-03 -2.712219963629918E-04
-4.387500000000E+01 -9.176227451179257E-03 -2.716159675950001E-04
-4.385000000000E+01 -9.184438044003153E-03 -2.720107820267047E-04
-4.382500000000E+01 -9.192646801429850E-03 -2.724064423331342E-04
-4.380000000000E+01 -9.200853883669390E-03 -2.728029511959747E-04
-4.377500000000E+01 -9.209059448831887E-03 -2.732003113036684E-04
-4.375000000000E+01 -9.217263652968734E-03 -2.735985253514961E-04
-4.372500000000E+01 -9.225466650113910E-03 -2.739975960416751E-04
-4.370000000000E+01 -9.233668592323333E-03 -2.743975260834371E-04
-4.367500000000E+01 -9.241869629714312E-03 -2.747983181931291E-04
-4.365000000000E+01 -9.250069910502937E-03 -2.751999750942896E-04
-4.362500000000E+01 -9.258269581041839E-03 -2.756024995177411E-04
-4.360000000000E+01 -9.266468785856706E-03 -2.760058942016721E-04
-4.357500000000E+01 -9.274667667681145E-03 -2.764101618917226E-04
-4.355000000000E+01 -9.282866367492459E-03 -2.768153053410669E-04
-4.352500000000E+01 -9.291065024544772E-03 -2.772213273105038E-04
-4.350000000000E+01 -9.299263776403279E-03 -2.776282305685293E-04
-4.347500000000E+01 -9.307462758975994E-03 -2.780360178914227E-04
-4.345000000000E+01 -9.315662106546170E-03 -2.784446920633324E-04
-4.342500000000E+01 -9.323861951803399E-03 -2.788542558763515E-04
-4.340000000000E+01 -9.332062425873968E-03 -2.792647121305992E-04
-4.337500000000E+01 -9.340263658350821E-03 -2.796760636342970E-04
-4.335000000000E+01 -9.348465777323019E-03 -2.800883132038609E-04
-4.332500000000E+01 -9.356668909404151E-03 -2.805014636639603E-04
-4.330000000000E+01 -9.364873179760168E-03 -2.809155178476151E-04
-4.327500000000E+01 -9.373078712137091E-03 -2.813304785962612E-04
-4.325000000000E+01 -9.381285628887950E-03 -2.817463487598355E-04
-4.322500000000E+01 -9.389494050998646E-03 -2.821631311968434E-04
-4.320000000000E+01 -9.397704098114185E-03 -2.825808287744469E-04
-4.317500000000E+01 -9.405915888563456E-03 -2.829994443685307E-04
-4.315000000000E+01 -9.414129539383946E-03 -2.834189808637886E-04
-4.312500000000E+01 -9.422345166346612E-03 -2.838394411537806E-04
-4.310000000000E+01 -9.430562883978252E-03 -2.842608281410332E-04
-4.307500000000E+01 -9.438782805585785E-03 -2.846831447370923E-04
-4.305000000000E+01 -9.447005043278800E-03 -2.851063938626101E-04
-4.302500000000E+01 -9.455229707991225E-03 -2.855305784474133E-04
-4.300000000000E+01 -9.463456909503872E-03 -2.859557014305769E-04
-4.297500000000E+01 -9.471686756464991E-03 -2.863817657605053E-04
-4.295000000000E+01 -9.479919356412157E-03 -2.868087743949938E-04
-4.292500000000E+01 -9.488154815791832E-03 -2.872367303013132E-04
-4.290000000000E+01 -9.496393239980375E-03 -2.876656364562741E-04
-4.287500000000E+01 -9.504634733302767E-03 -2.880954958463026E-04
-4.285000000000E+01 -9.512879399052765E-03 -2.885263114675139E-04
-4.282500000000E+01 -9.521127339511404E-03 -2.889580863257868E-04
-4.280000000000E+01 -9.529378655965542E-03 -2.893908234368283E-04
-4.277500000000E+01 -9.537633448726282E-03 -2.898245258262499E-04
-4.275000000000E+01 -9.545891817146561E-03 -2.902591965296426E-04
-4.272500000000E+01 -9.554153859638859E-03 -2.906948385926409E-04
-4.270000000000E+01 -9.562419673692210E-03 -2.911314550710070E-04
-4.267500000000E+01 -9.570689355888916E-03 -2.915690490306855E-04
-4.265000000000E+01 -9.578963001921409E-03 -2.920076235478843E-04
-4.262500000000E+01 -9.587240706607943E-03 -2.924471817091484E-04
-4.260000000000E+01 -9.595522563908672E-03 -2.928877266114283E-04
-4.257500000000E+01 -9.603808666941662E-03 -2.933292613621423E-04
