#Spectra: 1
Emin______Emax      -5.000000000000000E+01  5.000000000000000E+01
EminPole__EmaxPole  -1.200555767287187E+01  1.487803711363387E+01
dE________Gamma      2.500000000000000E-02  1.000000000000000E-01
Energy               Re[0]                  Im[0]                
-5.000000000000E+01 -4.295895617298488E-03 -1.920108904014183E-04
-4.997500000000E+01 -4.366142376749079E-03 -1.923286159107020E-04
-4.995000000000E+01 -4.436293828833949E-03 -1.926467074790884E-04
-4.992500000000E+01 -4.506257976145344E-03 -1.929650541565012E-04
-4.990000000000E+01 -4.575944661983260E-03 -1.932835471689831E-04
-4.987500000000E+01 -4.645266275902719E-03 -1.936020807792418E-04
-4.985000000000E+01 -4.714138407916927E-03 -1.939205530851844E-04
-4.982500000000E+01 -4.782480439881781E-03 -1.942388667424572E-04
-4.980000000000E+01 -4.850216064818081E-03 -1.945569295996541E-04
-4.977500000000E+01 -4.917273727378020E-03 -1.948746552378923E-04
-4.975000000000E+01 -4.983586981209295E-03 -1.951919634095142E-04
-4.972500000000E+01 -5.049094761483630E-03 -1.955087803737473E-04
-4.970000000000E+01 -5.113741573230645E-03 -1.958250391300261E-04
-4.967500000000E+01 -5.177477598255068E-03 -1.961406795523200E-04
-4.965000000000E+01 -5.240258725252264E-03 -1.964556484300048E-04
-4.962500000000E+01 -5.302046509221289E-03 -1.967698994226608E-04
-4.960000000000E+01 -5.362808067395336E-03 -1.970833929375313E-04
-4.957500000000E+01 -5.422515919656726E-03 -1.973960959393085E-04
-4.955000000000E+01 -5.481147781809317E-03 -1.977079817023737E-04
-4.952500000000E+01 -5.538686320168964E-03 -1.980190295158032E-04
-4.950000000000E+01 -5.595118875753465E-03 -1.983292243511582E-04
-4.947500000000E+01 -5.650437165954442E-03 -1.986385565026473E-04
-4.945000000000E+01 -5.704636971003245E-03 -1.989470212085670E-04
-4.942500000000E+01 -5.757717811854869E-03 -1.992546182620502E-04
-4.940000000000E+01 -5.809682625350750E-03 -1.995613516182623E-04
-4.937500000000E+01 -5.860537441722513E-03 -1.998672290042157E-04
-4.935000000000E+01 -5.910291068700287E-03 -2.001722615363951E-04
-4.932500000000E+01 -5.958954785714933E-03 -2.004764633504247E-04
-4.930000000000E+01 -6.006542050955362E-03 -2.007798512461909E-04
-4.927500000000E+01 -6.053068223375024E-03 -2.010824443509310E-04
-4.925000000000E+01 -6.098550301140305E-03 -2.013842638021560E-04
-4.922500000000E+01 -6.143006677487550E-03 -2.016853324515755E-04
-4.920000000000E+01 -6.186456914503836E-03 -2.019856745906740E-04
-4.917500000000E+01 -6.228921534962320E-03 -2.022853156980991E-04
-4.915000000000E+01 -6.270421832032258E-03 -2.025842822086778E-04
-4.912500000000E+01 -6.310979696430186E-03 -2.028826013035223E-04
-4.910000000000E+01 -6.350617460383963E-03 -2.031803007204831E-04
-4.907500000000E+01 -6.389357757634581E-03 -2.034774085840285E-04
-4.905000000000E+01 -6.427223398596774E-03 -2.037739532534684E-04
-4.902500000000E+01 -6.464237259732573E-03 -2.040699631883996E-04
-4.900000000000E+01 -6.500422186153421E-03 -2.043654668301852E-04
-4.897500000000E+01 -6.535800906454972E-03 -2.046604924982510E-04
-4.895000000000E+01 -6.570395958795389E-03 -2.049550683000113E-04
-4.892500000000E+01 -6.604229627250390E-03 -2.052492220532627E-04
-4.890000000000E+01 -6.637323887513038E-03 -2.055429812199008E-04
-4.887500000000E+01 -6.669700361049405E-03 -2.058363728499047E-04
-4.885000000000E+01 -6.701380276869385E-03 -2.061294235345505E-04
-4.882500000000E+01 -6.732384440125174E-03 -2.064221593679198E-04
-4.880000000000E+01 -6.762733206803925E-03 -2.067146059158003E-04
-4.877500000000E+01 -6.792446463836335E-03 -2.070067881911667E-04
-4.875000000000E+01 -6.821543613996765E-03 -2.072987306354792E-04
-4.872500000000E+01 -6.850043565024426E-03 -2.075904571051132E-04
-4.870000000000E+01 -6.877964722444353E-03 -2.078819908622818E-04
-4.867500000000E+01 -6.905324985616306E-03 -2.081733545698919E-04
-4.865000000000E+01 -6.932141746585488E-03 -2.084645702897967E-04
-4.862500000000E+01 -6.958431891350172E-03 -2.087556594840043E-04
-4.860000000000E+01 -6.984211803202202E-03 -2.090466430184025E-04
-4.857500000000E+01 -7.009497367832139E-03 -2.093375411686316E-04
-4.855000000000E+01 -7.034303979924029E-03 -2.096283736277863E-04
-4.852500000000E+01 -7.058646550996433E-03 -2.099191595156265E-04
-4.850000000000E+01 -7.082539518273265E-03 -2.102099173890633E-04
-4.847500000000E+01 -7.105996854393701E-03 -2.105006652536527E-04
-4.845000000000E+01 -7.129032077793686E-03 -2.107914205759322E-04
-4.842500000000E+01 -7.151658263611214E-03 -2.110822002963932E-04
-4.840000000000E+01 -7.173888054987200E-03 -2.113730208429486E-04
-4.837500000000E+01 -7.195733674650025E-03 -2.116638981447433E-04
-4.835000000000E+01 -7.217206936686083E-03 -2.119548476462134E-04
-4.832500000000E+01 -7.238319258412862E-03 -2.122458843212664E-04
-4.830000000000E+01 -7.259081672282315E-03 -2.125370226875191E-04
-4.827500000000E+01 -7.279504837752850E-03 -2.128282768204904E-04
-4.825000000000E+01 -7.299599053077596E-03 -2.131196603677163E-04
-4.822500000000E+01 -7.319374266964713E-03 -2.134111865627034E-04
-4.820000000000E+01 -7.338840090072883E-03 -2.137028682387043E-04
-4.817500000000E+01 -7.358005806311038E-03 -2.139947178422521E-04
-4.815000000000E+01 -7.376880383918148E-03 -2.142867474464358E-04
-4.812500000000E+01 -7.395472486301110E-03 -2.145789687638949E-04
-4.810000000000E+01 -7.413790482617070E-03 -2.148713931595084E-04
-4.807500000000E+01 -7.431842458086030E-03 -2.151640316627579E-04
-4.805000000000E+01 -7.449636224025586E-03 -2.154568949797707E-04
-4.802500000000E+01 -7.467179327601455E-03 -2.157499935050085E-04
-4.800000000000E+01 -7.484479061289774E-03 -2.160433373326280E-04
-4.797500000000E+01 -7.501542472049216E-03 -2.163369362674835E-04
-4.795000000000E+01 -7.518376370203111E-03 -2.166307998357896E-04
-4.792500000000E+01 -7.534987338032670E-03 -2.169249372954347E-04
-4.790000000000E+01 -7.551381738084328E-03 -2.172193576459550E-04
-4.787500000000E+01 -7.567565721194066E-03 -2.175140696381666E-04
-4.785000000000E+01 -7.583545234234408E-03 -2.178090817834707E-04
-4.782500000000E+01 -7.599326027588412E-03 -2.181044023628279E-04
-4.780000000000E+01 -7.614913662356722E-03 -2.184000394354152E-04
-4.777500000000E+01 -7.630313517304284E-03 -2.186960008469650E-04
-4.775000000000E+01 -7.645530795552852E-03 -2.189922942378119E-04
-4.772500000000E+01 -7.660570531026678E-03 -2.192889270506321E-04
-4.770000000000E+01 -7.675437594657854E-03 -2.195859065379002E-04
-4.767500000000E+01 -7.690136700359351E-03 -2.198832397690664E-04
-4.765000000000E+01 -7.704672410771955E-03 -2.201809336374620E-04
-4.762500000000E+01 -7.719049142793672E-03 -2.204789948669467E-04
-4.760000000000E+01 -7.733271172897463E-03 -2.207774300183009E-04
-4.757500000000E+01 -7.747342642245687E-03 -2.210762454953707E-04
-4.755000000000E+01 -7.761267561607727E-03 -2.213754475509835E-04
-4.752500000000E+01 -7.775049816087930E-03 -2.216750422926329E-04
-4.750000000000E+01 -7.788693169670933E-03 -2.219750356879401E-04
-4.747500000000E+01 -7.802201269590786E-03 -2.222754335699142E-04
-4.745000000000E+01 -7.815577650530633E-03 -2.225762416420008E-04
-4.742500000000E+01 -7.828825738659525E-03 -2.228774654829406E-04
-4.740000000000E+01 -7.841948855512176E-03 -2.231791105514312E-04
-4.737500000000E+01 -7.854950221717789E-03 -2.234811821906251E-04
-4.735000000000E+01 -7.867832960584737E-03 -2.237836856324311E-04
-4.732500000000E+01 -7.880600101544854E-03 -2.240866260016696E-04
-4.730000000000E+01 -7.893254583465042E-03 -2.243900083200578E-04
-4.727500000000E+01 -7.905799257829541E-03 -2.246938375100382E-04
-4.725000000000E+01 -7.918236891799655E-03 -2.249981183984658E-04
-4.722500000000E+01 -7.930570171154477E-03 -2.253028557201504E-04
-4.720000000000E+01 -7.942801703118162E-03 -2.256080541212630E-04
-4.717500000000E+01 -7.954934019078522E-03 -2.259137181626116E-04
-4.715000000000E+01 -7.966969577200196E-03 -2.262198523227907E-04
-4.712500000000E+01 -7.978910764938243E-03 -2.265264610012132E-04
-4.710000000000E+01 -7.990759901454769E-03 -2.268335485210218E-04
-4.707500000000E+01 -8.002519239943277E-03 -2.271411191318953E-04
-4.705000000000E+01 -8.014190969864608E-03 -2.274491770127456E-04
-4.702500000000E+01 -8.025777219097500E-03 -2.277577262743124E-04
-4.700000000000E+01 -8.037280056007696E-03 -2.280667709616618E-04
-4.697500000000E+01 -8.048701491438808E-03 -2.283763150565918E-04
-4.695000000000E+01 -8.060043480627777E-03 -2.286863624799427E-04
-4.692500000000E+01 -8.071307925048843E-03 -2.289969170938280E-04
-4.690000000000E+01 -8.082496674187747E-03 -2.293079827037810E-04
-4.687500000000E+01 -8.093611527250336E-03 -2.296195630608165E-04
-4.685000000000E+01 -8.104654234806710E-03 -2.299316618634226E-04
-4.682500000000E+01 -8.115626500375213E-03 -2.302442827594755E-04
-4.680000000000E+01 -8.126529981947126E-03 -2.305574293480901E-04
-4.677500000000E+01 -8.137366293455480E-03 -2.308711051813953E-04
-4.675000000000E+01 -8.148137006190066E-03 -2.311853137662484E-04
-4.672500000000E+01 -8.158843650160280E-03 -2.315000585658925E-04
-4.670000000000E+01 -8.169487715408428E-03 -2.318153430015425E-04
-4.667500000000E+01 -8.180070653275848E-03 -2.321311704539261E-04
-4.665000000000E+01 -8.190593877622040E-03 -2.324475442647674E-04
-4.662500000000E+01 -8.201058766001182E-03 -2.327644677382076E-04
-4.660000000000E+01 -8.211466660795414E-03 -2.330819441421919E-04
-4.657500000000E+01 -8.221818870308373E-03 -2.333999767097955E-04
-4.655000000000E+01 -8.232116669818492E-03 -2.337185686405048E-04
-4.652500000000E+01 -8.242361302597024E-03 -2.340377231014617E-04
-4.650000000000E+01 -8.252553980887695E-03 -2.343574432286523E-04
-4.647500000000E+01 -8.262695886853841E-03 -2.346777321280689E-04
-4.645000000000E+01 -8.272788173490963E-03 -2.349985928768217E-04
-4.642500000000E+01 -8.282831965508329E-03 -2.353200285242093E-04
-4.640000000000E+01 -8.292828360179616E-03 -2.356420420927715E-04
-4.637500000000E+01 -8.302778428163557E-03 -2.359646365792832E-04
-4.635000000000E+01 -8.312683214297518E-03 -2.362878149557318E-04
-4.632500000000E+01 -8.322543738362602E-03 -2.366115801702540E-04
-4.630000000000E+01 -8.332360995823107E-03 -2.369359351480447E-04
-4.627500000000E+01 -8.342135958541195E-03 -2.372608827922323E-04
-4.625000000000E+01 -8.351869575465984E-03 -2.375864259847278E-04
-4.622500000000E+01 -8.361562773301702E-03 -2.379125675870497E-04
-4.620000000000E+01 -8.371216457150570E-03 -2.382393104411122E-04
-4.617500000000E+01 -8.380831511136449E-03 -2.385666573699972E-04
-4.615000000000E+01 -8.390408799006372E-03 -2.388946111786976E-04
-4.612500000000E+01 -8.399949164712822E-03 -2.392231746548401E-04
-4.610000000000E+01 -8.409453432976190E-03 -2.395523505693731E-04
-4.607500000000E+01 -8.418922409829332E-03 -2.398821416772546E-04
-4.605000000000E+01 -8.428356883143672E-03 -2.402125507180963E-04
-4.602500000000E+01 -8.437757623138382E-03 -2.405435804167996E-04
-4.600000000000E+01 -8.447125382873455E-03 -2.408752334841729E-04
-4.597500000000E+01 -8.456460898726037E-03 -2.412075126175193E-04
-4.595000000000E+01 -8.465764890851806E-03 -2.415404205012225E-04
-4.592500000000E+01 -8.475038063631635E-03 -2.418739598072963E-04
-4.590000000000E+01 -8.484281106103993E-03 -2.422081331959355E-04
-4.587500000000E+01 -8.493494692383361E-03 -2.425429433160323E-04
-4.585000000000E+01 -8.502679482065309E-03 -2.428783928056965E-04
-4.582500000000E+01 -8.511836120619580E-03 -2.432144842927410E-04
-4.580000000000E+01 -8.520965239769654E-03 -2.435512203951683E-04
-4.577500000000E+01 -8.530067457861562E-03 -2.438886037216361E-04
-4.575000000000E+01 -8.539143380220127E-03 -2.442266368719069E-04
-4.572500000000E+01 -8.548193599495293E-03 -2.445653224372914E-04
-4.570000000000E+01 -8.557218695997081E-03 -2.449046630010684E-04
-4.567500000000E+01 -8.566219238020218E-03 -2.452446611389096E-04
-4.565000000000E+01 -8.575195782159224E-03 -2.455853194192766E-04
-4.562500000000E+01 -8.584148873613071E-03 -2.459266404038158E-04
-4.560000000000E+01 -8.593079046482172E-03 -2.462686266477327E-04
-4.557500000000E+01 -8.601986824054884E-03 -2.466112807001658E-04
-4.555000000000E+01 -8.610872719085732E-03 -2.469546051045537E-04
-4.552500000000E+01 -8.619737234065877E-03 -2.472986023989749E-04
-4.550000000000E+01 -8.628580861484830E-03 -2.476432751164953E-04
-4.547500000000E+01 -8.637404084085039E-03 -2.479886257854904E-04
-4.545000000000E+01 -8.646207375108324E-03 -2.483346569299813E-04
-4.542500000000E+01 -8.654991198535337E-03 -2.486813710699450E-04
-4.540000000000E+01 -8.663756009318284E-03 -2.490287707216097E-04
-4.537500000000E+01 -8.672502253606102E-03 -2.493768583977685E-04
-4.535000000000E+01 -8.681230368963854E-03 -2.497256366080582E-04
-4.532500000000E+01 -8.689940784585411E-03 -2.500751078592478E-04
-4.530000000000E+01 -8.698633921500106E-03 -2.504252746555104E-04
-4.527500000000E+01 -8.707310192772988E-03 -2.507761394987028E-04
-4.525000000000E+01 -8.715970003700432E-03 -2.511277048886066E-04
-4.522500000000E+01 -8.724613751998730E-03 -2.514799733232093E-04
-4.520000000000E+01 -8.733241827988934E-03 -2.518329472989309E-04
-4.517500000000E+01 -8.741854614774731E-03 -2.521866293108816E-04
-4.515000000000E+01 -8.750452488416965E-03 -2.525410218530982E-04
-4.512500000000E+01 -8.759035818102220E-03 -2.528961274187654E-04
-4.510000000000E+01 -8.767604966306866E-03 -2.532519485004558E-04
-4.507500000000E+01 -8.776160288956971E-03 -2.536084875903403E-04
-4.505000000000E+01 -8.784702135583477E-03 -2.539657471804131E-04
-4.502500000000E+01 -8.793230849472818E-03 -2.543237297626938E-04
-4.500000000000E+01 -8.801746767814022E-03 -2.546824378294387E-04
-4.497500000000E+01 -8.810250221841360E-03 -2.550418738733465E-04
-4.495000000000E+01 -8.818741536973349E-03 -2.554020403877439E-04
-4.492500000000E+01 -8.827221032947580E-03 -2.557629398667860E-04
-4.490000000000E+01 -8.835689023952570E-03 -2.561245748056510E-04
-4.487500000000E+01 -8.844145818755342E-03 -2.564869477007115E-04
-4.485000000000E+01 -8.852591720826367E-03 -2.568500610497215E-04
-4.482500000000E+01 -8.861027028460082E-03 -2.572139173519982E-04
-4.480000000000E+01 -8.869452034893789E-03 -2.575785191085828E-04
-4.477500000000E+01 -8.877867028421371E-03 -2.579438688224260E-04
-4.475000000000E+01 -8.886272292506216E-03 -2.583099689985447E-04
-4.472500000000E+01 -8.894668105889240E-03 -2.586768221441751E-04
-4.470000000000E+01 -8.903054742695453E-03 -2.590444307689585E-04
-4.467500000000E+01 -8.911432472537050E-03 -2.594127973850746E-04
-4.465000000000E+01 -8.919801560613909E-03 -2.597819245074043E-04
-4.462500000000E+01 -8.928162267811688E-03 -2.601518146536823E-04
-4.460000000000E+01 -8.936514850797272E-03 -2.605224703446342E-04
-4.457500000000E+01 -8.944859562111957E-03 -2.608938941041379E-04
-4.455000000000E+01 -8.953196650261759E-03 -2.612660884593529E-04
-4.452500000000E+01 -8.961526359805981E-03 -2.616390559408622E-04
-4.450000000000E+01 -8.969848931443305E-03 -2.620127990828166E-04
-4.447500000000E+01 -8.978164602095771E-03 -2.623873204230624E-04
-4.445000000000E+01 -8.986473604990391E-03 -2.627626225032780E-04
-4.442500000000E+01 -8.994776169739099E-03 -2.631387078690993E-04
-4.440000000000E+01 -9.003072522416408E-03 -2.635155790702542E-04
-4.437500000000E+01 -9.011362885635551E-03 -2.638932386606867E-04
-4.435000000000E+01 -9.019647478621931E-03 -2.642716891986739E-04
-4.432500000000E+01 -9.027926517285857E-03 -2.646509332469630E-04
-4.430000000000E+01 -9.036200214292345E-03 -2.650309733728748E-04
-4.427500000000E+01 -9.044468779130264E-03 -2.654118121484350E-04
-4.425000000000E+01 -9.052732418179119E-03 -2.657934521504786E-04
-4.422500000000E+01 -9.060991334774185E-03 -2.661758959607769E-04
-4.420000000000E+01 -9.069245729270734E-03 -2.665591461661417E-04
-4.417500000000E+01 -9.077495799105656E-03 -2.669432053585437E-04
-4.415000000000E+01 -9.085741738859041E-03 -2.673280761352122E-04
-4.412500000000E+01 -9.093983740312579E-03 -2.677137610987536E-04
-4.410000000000E+01 -9.102221992508083E-03 -2.681002628572479E-04
-4.407500000000E+01 -9.110456681803667E-03 -2.684875840243721E-04
-4.405000000000E+01 -9.118687991929003E-03 -2.688757272194788E-04
-4.402500000000E+01 -9.126916104039123E-03 -2.692646950677217E-04
-4.400000000000E+01 -9.135141196767232E-03 -2.696544902001400E-04
-4.397500000000E+01 -9.143363446275726E-03 -2.700451152537718E-04
-4.395000000000E+01 -9.151583026306776E-03 -2.704365728717434E-04
-4.392500000000E+01 -9.159800108230981E-03 -2.708288657033694E-04
-4.390000000000E+01 -9.168014861095483E-03 -2.712219964042536E-04
-4.387500000000E+01 -9.176227451670568E-03 -2.716159676363772E-04
-4.385000000000E+01 -9.184438044495603E-03 -2.720107820681984E-04
-4.382500000000E+01 -9.192646801923370E-03 -2.724064423747436E-04
-4.380000000000E+01 -9.200853884164062E-03 -2.728029512377015E-04
-4.377500000000E+01 -9.209059449327596E-03 -2.732003113455128E-04
-4.375000000000E+01 -9.217263653465551E-03 -2.735985253934590E-04
-4.372500000000E+01 -9.225466650611781E-03 -2.739975960837554E-04
-4.370000000000E+01 -9.233668592822377E-03 -2.743975261256350E-04
-4.367500000000E+01 -9.241869630214368E-03 -2.747983182354475E-04
-4.365000000000E+01 -9.250069911004065E-03 -2.751999751367278E-04
-4.362500000000E+01 -9.258269581544154E-03 -2.756024995602992E-04
-4.360000000000E+01 -9.266468786360001E-03 -2.760058942443496E-04
-4.357500000000E+01 -9.274667668185551E-03 -2.764101619345192E-04
-4.355000000000E+01 -9.282866367997963E-03 -2.768153053839860E-04
-4.352500000000E+01 -9.291065025051420E-03 -2.772213273535454E-04
-4.350000000000E+01 -9.299263776911039E-03 -2.776282306116917E-04
-4.347500000000E+01 -9.307462759484863E-03 -2.780360179347078E-04
-4.345000000000E+01 -9.315662107056122E-03 -2.784446921067407E-04
-4.342500000000E+01 -9.323861952314490E-03 -2.788542559198824E-04
-4.340000000000E+01 -9.332062426386125E-03 -2.792647121742531E-04
-4.337500000000E+01 -9.340263658864159E-03 -2.796760636780772E-04
-4.335000000000E+01 -9.348465777837463E-03 -2.800883132477637E-04
-4.332500000000E+01 -9.356668909919675E-03 -2.805014637079878E-04
-4.330000000000E+01 -9.364873180276848E-03 -2.809155178917693E-04
-4.327500000000E+01 -9.373078712654918E-03 -2.813304786405412E-04
-4.325000000000E+01 -9.381285629406898E-03 -2.817463488042415E-04
-4.322500000000E+01 -9.389494051518751E-03 -2.821631312413775E-04
-4.320000000000E+01 -9.397704098635381E-03 -2.825808288191066E-04
-4.317500000000E+01 -9.405915889085816E-03 -2.829994444133197E-04
-4.315000000000E+01 -9.414129539907543E-03 -2.834189809087042E-04
-4.312500000000E+01 -9.422345166871312E-03 -2.838394411988247E-04
-4.310000000000E+01 -9.430562884504090E-03 -2.842608281862067E-04
-4.307500000000E+01 -9.438782806112826E-03 -2.846831447823972E-04
-4.305000000000E+01 -9.447005043806940E-03 -2.851063939080439E-04
-4.302500000000E+01 -9.455229708520550E-03 -2.855305784929763E-04
-4.300000000000E+01 -9.463456910034291E-03 -2.859557014762726E-04
-4.297500000000E+01 -9.471686756996644E-03 -2.863817658063321E-04
-4.295000000000E+01 -9.479919356945027E-03 -2.868087744409517E-04
-4.292500000000E+01 -9.488154816325910E-03 -2.872367303474036E-04
-4.290000000000E+01 -9.496393240515497E-03 -2.876656365024972E-04
-4.287500000000E+01 -9.504634733839159E-03 -2.880954958926580E-04
-4.285000000000E+01 -9.512879399590286E-03 -2.885263115140037E-04
-4.282500000000E+01 -9.521127340050046E-03 -2.889580863724129E-04
-4.280000000000E+01 -9.529378656505431E-03 -2.893908234835864E-04
-4.277500000000E+01 -9.537633449267320E-03 -2.898245258731439E-04
-4.275000000000E+01 -9.545891817688818E-03 -2.902591965766729E-04
-4.272500000000E+01 -9.554153860182362E-03 -2.906948386398091E-04
-4.270000000000E+01 -9.562419674236860E-03 -2.911314551183097E-04
-4.267500000000E+01 -9.570689356434863E-03 -2.915690490781250E-04
-4.265000000000E+01 -9.578963002468495E-03 -2.920076235954629E-04
-4.262500000000E+01 -9.587240707156259E-03 -2.924471817568652E-04
-4.260000000000E+01 -9.595522564458241E-03 -2.928877266592824E-04
-4.257500000000E+01 -9.603808667492388E-03 -2.933292614101360E-04
