#Spectra: 1
Emin______Emax      -5.000000000000000E+01  5.000000000000000E+01
EminPole__EmaxPole  -4.423169185910552E+00  1.817140894532909E+01
dE________Gamma      2.500000000000000E-02  1.000000000000000E-01
Energy               Re[0]                  Im[0]                
-5.000000000000E+01 -2.299026358561276E-03 -2.475340130988904E-05
-4.997500000000E+01 -2.438184463821604E-03 -2.492003099847297E-05
-4.995000000000E+01 -2.573449456490214E-03 -2.508279730236957E-05
-4.992500000000E+01 -2.702658072035167E-03 -2.523948860009543E-05
-4.990000000000E+01 -2.824239060694145E-03 -2.538849683600811E-05
-4.987500000000E+01 -2.937250401239207E-03 -2.552885584964113E-05
-4.985000000000E+01 -3.041314876365924E-03 -2.566017590401344E-05
-4.982500000000E+01 -3.136499398930446E-03 -2.578252072250043E-05
-4.980000000000E+01 -3.223180540576404E-03 -2.589627036737042E-05
-4.977500000000E+01 -3.301923973152677E-03 -2.600199825807849E-05
-4.975000000000E+01 -3.373390076130210E-03 -2.610037485308236E-05
-4.972500000000E+01 -3.438267195218299E-03 -2.619209952623735E-05
-4.970000000000E+01 -3.497228553794078E-03 -2.627785656827752E-05
-4.967500000000E+01 -3.550907094354277E-03 -2.635828948032194E-05
-4.965000000000E+01 -3.599882816767768E-03 -2.643398801907784E-05
-4.962500000000E+01 -3.644678250826480E-03 -2.650548354422660E-05
-4.960000000000E+01 -3.685758882031059E-03 -2.657324942296238E-05
-4.957500000000E+01 -3.723536358610999E-03 -2.663770427568397E-05
-4.955000000000E+01 -3.758373071455538E-03 -2.669921662576392E-05
-4.952500000000E+01 -3.790587236250850E-03 -2.675811006472616E-05
-4.950000000000E+01 -3.820457967201069E-03 -2.681466841151630E-05
-4.947500000000E+01 -3.848230063692362E-03 -2.686914058123848E-05
-4.945000000000E+01 -3.874118375581441E-03 -2.692174502600468E-05
-4.942500000000E+01 -3.898311699315667E-03 -2.697267369885437E-05
-4.940000000000E+01 -3.920976206607199E-03 -2.702209554225706E-05
-4.937500000000E+01 -3.942258433805785E-03 -2.707015952969734E-05
-4.935000000000E+01 -3.962287872509091E-03 -2.711699730151880E-05
-4.932500000000E+01 -3.981179206094778E-03 -2.716272544046146E-05
-4.930000000000E+01 -3.999034236365094E-03 -2.720744743184140E-05
-4.927500000000E+01 -4.015943541577803E-03 -2.725125535037023E-05
-4.925000000000E+01 -4.031987903116555E-03 -2.729423131152489E-05
-4.922500000000E+01 -4.047239533702817E-03 -2.733644872095415E-05
-4.920000000000E+01 -4.061763135794160E-03 -2.737797335107303E-05
-4.917500000000E+01 -4.075616814864911E-03 -2.741886426998724E-05
-4.915000000000E+01 -4.088852868726326E-03 -2.745917464427690E-05
-4.912500000000E+01 -4.101518470932596E-03 -2.749895243401050E-05
-4.910000000000E+01 -4.113656263624558E-03 -2.753824099561347E-05
-4.907500000000E+01 -4.125304872853744E-03 -2.757707960586671E-05
-4.905000000000E+01 -4.136499357457102E-03 -2.761550391830085E-05
-4.902500000000E+01 -4.147271600881598E-03 -2.765354636155302E-05
-4.900000000000E+01 -4.157650653942996E-03 -2.769123648781207E-05
-4.897500000000E+01 -4.167663035306055E-03 -2.772860127825816E-05
-4.895000000000E+01 -4.177332995464201E-03 -2.776566541137682E-05
-4.892500000000E+01 -4.186682749144260E-03 -2.780245149915909E-05
-4.890000000000E+01 -4.195732680340111E-03 -2.783898029546753E-05
-4.887500000000E+01 -4.204501523573814E-03 -2.787527088022545E-05
-4.885000000000E+01 -4.213006524463597E-03 -2.791134082256511E-05
-4.882500000000E+01 -4.221263582245438E-03 -2.794720632562717E-05
-4.880000000000E+01 -4.229287376521996E-03 -2.798288235532439E-05
-4.877500000000E+01 -4.237091480200674E-03 -2.801838275506289E-05
-4.875000000000E+01 -4.244688460312379E-03 -2.805372034814615E-05
-4.872500000000E+01 -4.252089968176498E-03 -2.808890702934736E-05
-4.870000000000E+01 -4.259306820180351E-03 -2.812395384694362E-05
-4.867500000000E+01 -4.266349070277032E-03 -2.815887107633238E-05
-4.865000000000E+01 -4.273226075159579E-03 -2.819366828620692E-05
-4.862500000000E+01 -4.279946552949541E-03 -2.822835439813808E-05
-4.860000000000E+01 -4.286518636129193E-03 -2.826293774031055E-05
-4.857500000000E+01 -4.292949919357835E-03 -2.829742609605924E-05
-4.855000000000E+01 -4.299247502732587E-03 -2.833182674777709E-05
-4.852500000000E+01 -4.305418030985816E-03 -2.836614651669709E-05
-4.850000000000E+01 -4.311467729052788E-03 -2.840039179898506E-05
-4.847500000000E+01 -4.317402434391675E-03 -2.843456859853515E-05
-4.845000000000E+01 -4.323227626392311E-03 -2.846868255680807E-05
-4.842500000000E+01 -4.328948453172869E-03 -2.850273898001628E-05
-4.840000000000E+01 -4.334569756027799E-03 -2.853674286392511E-05
-4.837500000000E+01 -4.340096091762107E-03 -2.857069891650663E-05
-4.835000000000E+01 -4.345531753119733E-03 -2.860461157865905E-05
-4.832500000000E+01 -4.350880787491513E-03 -2.863848504317915E-05
-4.830000000000E+01 -4.356147014068372E-03 -2.867232327215671E-05
-4.827500000000E+01 -4.361334039586551E-03 -2.870613001293965E-05
-4.825000000000E+01 -4.366445272797349E-03 -2.873990881280424E-05
-4.822500000000E+01 -4.371483937779195E-03 -2.877366303245091E-05
-4.820000000000E+01 -4.376453086197721E-03 -2.880739585843194E-05
-4.817500000000E+01 -4.381355608609006E-03 -2.884111031460890E-05
-4.815000000000E+01 -4.386194244891621E-03 -2.887480927272509E-05
-4.812500000000E+01 -4.390971593883507E-03 -2.890849546217239E-05
-4.810000000000E+01 -4.395690122294021E-03 -2.894217147902150E-05
-4.807500000000E+01 -4.400352172953065E-03 -2.897583979438117E-05
-4.805000000000E+01 -4.404959972453387E-03 -2.900950276214042E-05
-4.802500000000E+01 -4.409515638237846E-03 -2.904316262614883E-05
-4.800000000000E+01 -4.414021185177551E-03 -2.907682152688029E-05
-4.797500000000E+01 -4.418478531682908E-03 -2.911048150762232E-05
-4.795000000000E+01 -4.422889505384870E-03 -2.914414452023104E-05
-4.792500000000E+01 -4.427255848422573E-03 -2.917781243048527E-05
-4.790000000000E+01 -4.431579222366993E-03 -2.921148702307337E-05
-4.787500000000E+01 -4.435861212810236E-03 -2.924517000624006E-05
-4.785000000000E+01 -4.440103333646666E-03 -2.927886301612006E-05
-4.782500000000E+01 -4.444307031068968E-03 -2.931256762078550E-05
-4.780000000000E+01 -4.448473687301604E-03 -2.934628532402426E-05
-4.777500000000E+01 -4.452604624090807E-03 -2.938001756887304E-05
-4.775000000000E+01 -4.456701105970124E-03 -2.941376574092300E-05
-4.772500000000E+01 -4.460764343317451E-03 -2.944753117141350E-05
-4.770000000000E+01 -4.464795495219046E-03 -2.948131514013084E-05
-4.767500000000E+01 -4.468795672154731E-03 -2.951511887812548E-05
-4.765000000000E+01 -4.472765938516889E-03 -2.954894357026115E-05
-4.762500000000E+01 -4.476707314975020E-03 -2.958279035760748E-05
-4.760000000000E+01 -4.480620780697111E-03 -2.961666033968744E-05
-4.757500000000E+01 -4.484507275437392E-03 -2.965055457658962E-05
-4.755000000000E+01 -4.488367701500002E-03 -2.968447409095429E-05
-4.752500000000E+01 -4.492202925586775E-03 -2.971841986984395E-05
-4.750000000000E+01 -4.496013780537301E-03 -2.975239286650128E-05
-4.747500000000E+01 -4.499801066968416E-03 -2.978639400200993E-05
-4.745000000000E+01 -4.503565554819533E-03 -2.982042416685577E-05
-4.742500000000E+01 -4.507307984810627E-03 -2.985448422240211E-05
-4.740000000000E+01 -4.511029069817879E-03 -2.988857500228085E-05
-4.737500000000E+01 -4.514729496172754E-03 -2.992269731370611E-05
-4.735000000000E+01 -4.518409924889438E-03 -2.995685193871604E-05
-4.732500000000E+01 -4.522070992824932E-03 -2.999103963534483E-05
-4.730000000000E+01 -4.525713313776302E-03 -3.002526113873331E-05
-4.727500000000E+01 -4.529337479518741E-03 -3.005951716217824E-05
-4.725000000000E+01 -4.532944060788577E-03 -3.009380839812585E-05
-4.722500000000E+01 -4.536533608214049E-03 -3.012813551911320E-05
-4.720000000000E+01 -4.540106653197290E-03 -3.016249917866012E-05
-4.717500000000E+01 -4.543663708750771E-03 -3.019690001211478E-05
-4.715000000000E+01 -4.547205270290349E-03 -3.023133863745512E-05
-4.712500000000E+01 -4.550731816387728E-03 -3.026581565605052E-05
-4.710000000000E+01 -4.554243809485181E-03 -3.030033165338327E-05
-4.707500000000E+01 -4.557741696573986E-03 -3.033488719973517E-05
-4.705000000000E+01 -4.561225909839066E-03 -3.036948285083909E-05
-4.702500000000E+01 -4.564696867271989E-03 -3.040411914849921E-05
-4.700000000000E+01 -4.568154973253607E-03 -3.043879662117893E-05
-4.697500000000E+01 -4.571600619108528E-03 -3.047351578456269E-05
-4.695000000000E+01 -4.575034183632566E-03 -3.050827714208895E-05
-4.692500000000E+01 -4.578456033595506E-03 -3.054308118545767E-05
-4.690000000000E+01 -4.581866524219171E-03 -3.057792839511528E-05
-4.687500000000E+01 -4.585265999633431E-03 -3.061281924071477E-05
-4.685000000000E+01 -4.588654793310931E-03 -3.064775418155480E-05
-4.682500000000E+01 -4.592033228481168E-03 -3.068273366699981E-05
-4.680000000000E+01 -4.595401618526063E-03 -3.071775813687944E-05
-4.677500000000E+01 -4.598760267357032E-03 -3.075282802186970E-05
-4.675000000000E+01 -4.602109469774862E-03 -3.078794374385712E-05
-4.672500000000E+01 -4.605449511813830E-03 -3.082310571628725E-05
-4.670000000000E+01 -4.608780671069828E-03 -3.085831434449618E-05
-4.667500000000E+01 -4.612103217014552E-03 -3.089357002602837E-05
-4.665000000000E+01 -4.615417411295023E-03 -3.092887315094024E-05
-4.662500000000E+01 -4.618723508020958E-03 -3.096422410209063E-05
-4.660000000000E+01 -4.622021754038835E-03 -3.099962325541818E-05
-4.657500000000E+01 -4.625312389194392E-03 -3.103507098020725E-05
-4.655000000000E+01 -4.628595646584261E-03 -3.107056763934244E-05
-4.652500000000E+01 -4.631871752796103E-03 -3.110611358955224E-05
-4.650000000000E+01 -4.635140928139257E-03 -3.114170918164194E-05
-4.647500000000E+01 -4.638403386865660E-03 -3.117735476071805E-05
-4.645000000000E+01 -4.641659337380965E-03 -3.121305066640117E-05
-4.642500000000E+01 -4.644908982447713E-03 -3.124879723303407E-05
-4.640000000000E+01 -4.648152519379524E-03 -3.128459478987530E-05
-4.637500000000E+01 -4.651390140227689E-03 -3.132044366129151E-05
-4.635000000000E+01 -4.654622031960039E-03 -3.135634416693665E-05
-4.632500000000E+01 -4.657848376632725E-03 -3.139229662192729E-05
-4.630000000000E+01 -4.661069351555054E-03 -3.142830133700934E-05
-4.627500000000E+01 -4.664285129447618E-03 -3.146435861871940E-05
-4.625000000000E+01 -4.667495878594532E-03 -3.150046876953763E-05
-4.622500000000E+01 -4.670701762989302E-03 -3.153663208803745E-05
-4.620000000000E+01 -4.673902942475228E-03 -3.157284886902786E-05
-4.617500000000E+01 -4.677099572880431E-03 -3.160911940368989E-05
-4.615000000000E+01 -4.680291806147299E-03 -3.164544397970864E-05
-4.612500000000E+01 -4.683479790457462E-03 -3.168182288140094E-05
-4.610000000000E+01 -4.686663670351705E-03 -3.171825638983608E-05
-4.607500000000E+01 -4.689843586845448E-03 -3.175474478295495E-05
-4.605000000000E+01 -4.693019677539842E-03 -3.179128833568144E-05
-4.602500000000E+01 -4.696192076728647E-03 -3.182788732003237E-05
-4.600000000000E+01 -4.699360915501454E-03 -3.186454200522283E-05
-4.597500000000E+01 -4.702526321842759E-03 -3.190125265776604E-05
-4.595000000000E+01 -4.705688420727385E-03 -3.193801954157222E-05
-4.592500000000E+01 -4.708847334212967E-03 -3.197484291804141E-05
-4.590000000000E+01 -4.712003181528115E-03 -3.201172304615506E-05
-4.587500000000E+01 -4.715156079158515E-03 -3.204866018256290E-05
-4.585000000000E+01 -4.718306140929101E-03 -3.208565458166713E-05
-4.582500000000E+01 -4.721453478083647E-03 -3.212270649570439E-05
-4.580000000000E+01 -4.724598199361617E-03 -3.215981617482372E-05
-4.577500000000E+01 -4.727740411072067E-03 -3.219698386716276E-05
-4.575000000000E+01 -4.730880217165207E-03 -3.223420981892097E-05
-4.572500000000E+01 -4.734017719301133E-03 -3.227149427443008E-05
-4.570000000000E+01 -4.737153016916735E-03 -3.230883747622302E-05
-4.567500000000E+01 -4.740286207289794E-03 -3.234623966509935E-05
-4.565000000000E+01 -4.743417385600981E-03 -3.238370108018923E-05
-4.562500000000E+01 -4.746546644994059E-03 -3.242122195901555E-05
-4.560000000000E+01 -4.749674076633703E-03 -3.245880253755327E-05
-4.557500000000E+01 -4.752799769761474E-03 -3.249644305028732E-05
-4.555000000000E+01 -4.755923811750052E-03 -3.253414373026827E-05
-4.552500000000E+01 -4.759046288155515E-03 -3.257190480916666E-05
-4.550000000000E+01 -4.762167282767897E-03 -3.260972651732520E-05
-4.547500000000E+01 -4.765286877660205E-03 -3.264760908380920E-05
-4.545000000000E+01 -4.768405153235689E-03 -3.268555273645605E-05
-4.542500000000E+01 -4.771522188273673E-03 -3.272355770192259E-05
-4.540000000000E+01 -4.774638059973937E-03 -3.276162420573051E-05
-4.537500000000E+01 -4.777752843999439E-03 -3.279975247231251E-05
-4.535000000000E+01 -4.780866614517954E-03 -3.283794272505359E-05
-4.532500000000E+01 -4.783979444242227E-03 -3.287619518633452E-05
-4.530000000000E+01 -4.787091404468989E-03 -3.291451007757147E-05
-4.527500000000E+01 -4.790202565116380E-03 -3.295288761925572E-05
-4.525000000000E+01 -4.793312994760920E-03 -3.299132803099247E-05
-4.522500000000E+01 -4.796422760672333E-03 -3.302983153153679E-05
-4.520000000000E+01 -4.799531928848231E-03 -3.306839833883081E-05
-4.517500000000E+01 -4.802640564047347E-03 -3.310702867003789E-05
-4.515000000000E+01 -4.805748729821275E-03 -3.314572274157633E-05
-4.512500000000E+01 -4.808856488546279E-03 -3.318448076915308E-05
-4.510000000000E+01 -4.811963901453106E-03 -3.322330296779542E-05
-4.507500000000E+01 -4.815071028656608E-03 -3.326218955188170E-05
-4.505000000000E+01 -4.818177929184046E-03 -3.330114073517192E-05
-4.502500000000E+01 -4.821284661002894E-03 -3.334015673083700E-05
-4.500000000000E+01 -4.824391281047308E-03 -3.337923775148710E-05
-4.497500000000E+01 -4.827497845244518E-03 -3.341838400919979E-05
-4.495000000000E+01 -4.830604408539744E-03 -3.345759571554633E-05
-4.492500000000E+01 -4.833711024920920E-03 -3.349687308161896E-05
-4.490000000000E+01 -4.836817747442239E-03 -3.353621631805500E-05
-4.487500000000E+01 -4.839924628247352E-03 -3.357562563506290E-05
-4.485000000000E+01 -4.843031718592027E-03 -3.361510124244625E-05
-4.482500000000E+01 -4.846139068865310E-03 -3.365464334962653E-05
-4.480000000000E+01 -4.849246728611411E-03 -3.369425216566729E-05
-4.477500000000E+01 -4.852354746549559E-03 -3.373392789929457E-05
-4.475000000000E+01 -4.855463170594541E-03 -3.377367075892110E-05
-4.472500000000E+01 -4.858572047875744E-03 -3.381348095266512E-05
-4.470000000000E+01 -4.861681424756081E-03 -3.385335868837320E-05
-4.467500000000E+01 -4.864791346850363E-03 -3.389330417363789E-05
-4.465000000000E+01 -4.867901859043132E-03 -3.393331761581998E-05
-4.462500000000E+01 -4.871013005505919E-03 -3.397339922206577E-05
-4.460000000000E+01 -4.874124829714090E-03 -3.401354919932609E-05
-4.457500000000E+01 -4.877237374463296E-03 -3.405376775437549E-05
-4.455000000000E+01 -4.880350681885319E-03 -3.409405509382841E-05
-4.452500000000E+01 -4.883464793463575E-03 -3.413441142415762E-05
-4.450000000000E+01 -4.886579750048412E-03 -3.417483695171101E-05
-4.447500000000E+01 -4.889695591871294E-03 -3.421533188272795E-05
-4.445000000000E+01 -4.892812358559688E-03 -3.425589642335552E-05
-4.442500000000E+01 -4.895930089150442E-03 -3.429653077966349E-05
-4.440000000000E+01 -4.899048822103665E-03 -3.433723515766157E-05
-4.437500000000E+01 -4.902168595315686E-03 -3.437800976331234E-05
-4.435000000000E+01 -4.905289446132052E-03 -3.441885480254730E-05
-4.432500000000E+01 -4.908411411359713E-03 -3.445977048128086E-05
-4.430000000000E+01 -4.911534527279617E-03 -3.450075700542422E-05
-4.427500000000E+01 -4.914658829658166E-03 -3.454181458089972E-05
-4.425000000000E+01 -4.917784353759010E-03 -3.458294341365295E-05
-4.422500000000E+01 -4.920911134354072E-03 -3.462414370966826E-05
-4.420000000000E+01 -4.924039205734693E-03 -3.466541567497892E-05
-4.417500000000E+01 -4.927168601722173E-03 -3.470675951568143E-05
-4.415000000000E+01 -4.930299355678341E-03 -3.474817543794814E-05
-4.412500000000E+01 -4.933431500515346E-03 -3.478966364803736E-05
-4.410000000000E+01 -4.936565068705948E-03 -3.483122435230736E-05
-4.407500000000E+01 -4.939700092292943E-03 -3.487285775722711E-05
-4.405000000000E+01 -4.942836602898453E-03 -3.491456406938728E-05
-4.402500000000E+01 -4.945974631733329E-03 -3.495634349551209E-05
-4.400000000000E+01 -4.949114209605968E-03 -3.499819624246923E-05
-4.397500000000E+01 -4.952255366930843E-03 -3.504012251728251E-05
-4.395000000000E+01 -4.955398133737390E-03 -3.508212252713936E-05
-4.392500000000E+01 -4.958542539677938E-03 -3.512419647940480E-05
-4.390000000000E+01 -4.961688614035966E-03 -3.516634458162827E-05
-4.387500000000E+01 -4.964836385733981E-03 -3.520856704155492E-05
-4.385000000000E+01 -4.967985883341169E-03 -3.525086406713605E-05
-4.382500000000E+01 -4.971137135080915E-03 -3.529323586653778E-05
-4.380000000000E+01 -4.974290168838246E-03 -3.533568264815027E-05
-4.377500000000E+01 -4.977445012166820E-03 -3.537820462059746E-05
-4.375000000000E+01 -4.980601692296043E-03 -3.542080199274646E-05
-4.372500000000E+01 -4.983760236137787E-03 -3.546347497371553E-05
-4.370000000000E+01 -4.986920670293165E-03 -3.550622377288340E-05
-4.367500000000E+01 -4.990083021058941E-03 -3.554904859989778E-05
-4.365000000000E+01 -4.993247314434002E-03 -3.559194966468423E-05
-4.362500000000E+01 -4.996413576125374E-03 -3.563492717745365E-05
-4.360000000000E+01 -4.999581831554564E-03 -3.567798134871132E-05
-4.357500000000E+01 -5.002752105863112E-03 -3.572111238926404E-05
-4.355000000000E+01 -5.005924423918690E-03 -3.576432051022970E-05
-4.352500000000E+01 -5.009098810320703E-03 -3.580760592304265E-05
-4.350000000000E+01 -5.012275289405641E-03 -3.585096883946423E-05
-4.347500000000E+01 -5.015453885252671E-03 -3.589440947158776E-05
-4.345000000000E+01 -5.018634621688802E-03 -3.593792803184772E-05
-4.342500000000E+01 -5.021817522294083E-03 -3.598152473302662E-05
-4.340000000000E+01 -5.025002610406699E-03 -3.602519978826168E-05
-4.337500000000E+01 -5.028189909127761E-03 -3.606895341105315E-05
-4.335000000000E+01 -5.031379441326221E-03 -3.611278581527018E-05
-4.332500000000E+01 -5.034571229643629E-03 -3.615669721515904E-05
-4.330000000000E+01 -5.037765296498566E-03 -3.620068782534819E-05
-4.327500000000E+01 -5.040961664091452E-03 -3.624475786085704E-05
-4.325000000000E+01 -5.044160354408617E-03 -3.628890753710151E-05
-4.322500000000E+01 -5.047361389226786E-03 -3.633313706990051E-05
-4.320000000000E+01 -5.050564790117390E-03 -3.637744667548279E-05
-4.317500000000E+01 -5.053770578450530E-03 -3.642183657049387E-05
-4.315000000000E+01 -5.056978775398954E-03 -3.646630697200193E-05
-4.312500000000E+01 -5.060189401942292E-03 -3.651085809750314E-05
-4.310000000000E+01 -5.063402478870709E-03 -3.655549016492942E-05
-4.307500000000E+01 -5.066618026788642E-03 -3.660020339265403E-05
-4.305000000000E+01 -5.069836066118797E-03 -3.664499799949741E-05
-4.302500000000E+01 -5.073056617105477E-03 -3.668987420473338E-05
-4.300000000000E+01 -5.076279699818085E-03 -3.673483222809453E-05
-4.297500000000E+01 -5.079505334155020E-03 -3.677987228977904E-05
-4.295000000000E+01 -5.082733539846596E-03 -3.682499461045609E-05
-4.292500000000E+01 -5.085964336458758E-03 -3.687019941127114E-05
-4.290000000000E+01 -5.089197743396093E-03 -3.691548691385231E-05
-4.287500000000E+01 -5.092433779905104E-03 -3.696085734031532E-05
-4.285000000000E+01 -5.095672465077314E-03 -3.700631091326969E-05
-4.282500000000E+01 -5.098913817852441E-03 -3.705184785582432E-05
-4.280000000000E+01 -5.102157857021343E-03 -3.709746839159205E-05
-4.277500000000E+01 -5.105404601228880E-03 -3.714317274469585E-05
-4.275000000000E+01 -5.108654068976872E-03 -3.718896113977494E-05
-4.272500000000E+01 -5.111906278626934E-03 -3.723483380198761E-05
-4.270000000000E+01 -5.115161248403170E-03 -3.728079095701947E-05
-4.267500000000E+01 -5.118418996395055E-03 -3.732683283108680E-05
-4.265000000000E+01 -5.121679540559890E-03 -3.737295965094209E-05
-4.262500000000E+01 -5.124942898725548E-03 -3.741917164387988E-05
-4.260000000000E+01 -5.128209088592938E-03 -3.746546903774100E-05
-4.257500000000E+01 -5.131478127738626E-03 -3.751185206091881E-05
