#Spectra: 1
Emin______Emax      -5.000000000000000E+01  5.000000000000000E+01
EminPole__EmaxPole   1.668794192520105E+01  3.928252005643949E+01
dE________Gamma      2.500000000000000E-02  1.000000000000000E-01
Energy               Re[0]                  Im[0]                
-5.000000000000E+01 -1.602800876523647E-03 -1.201112617402512E-05
-4.997500000000E+01 -1.699906967061686E-03 -1.208816727656989E-05
-4.995000000000E+01 -1.794273607034607E-03 -1.216329978036915E-05
-4.992500000000E+01 -1.884387630321237E-03 -1.223545017822740E-05
-4.990000000000E+01 -1.969150323228009E-03 -1.230383842533794E-05
-4.987500000000E+01 -2.047903397387247E-03 -1.236799645982664E-05
-4.985000000000E+01 -2.120383845133485E-03 -1.242773630717284E-05
-4.982500000000E+01 -2.186639445972104E-03 -1.248309027452612E-05
-4.980000000000E+01 -2.246934632393192E-03 -1.253424428822746E-05
-4.977500000000E+01 -2.301666104705617E-03 -1.258147811947798E-05
-4.975000000000E+01 -2.351296766595712E-03 -1.262511857802625E-05
-4.972500000000E+01 -2.396309017714790E-03 -1.266550641328457E-05
-4.970000000000E+01 -2.437174602730516E-03 -1.270297494218249E-05
-4.967500000000E+01 -2.474337010195489E-03 -1.273783756723462E-05
-4.965000000000E+01 -2.508202617812865E-03 -1.277038149136871E-05
-4.962500000000E+01 -2.539137530420892E-03 -1.280086546666367E-05
-4.960000000000E+01 -2.567467884111905E-03 -1.282951999978637E-05
-4.957500000000E+01 -2.593482096260192E-03 -1.285654893715847E-05
-4.955000000000E+01 -2.617434075791878E-03 -1.288213173150770E-05
-4.952500000000E+01 -2.639546784339704E-03 -1.290642595800925E-05
-4.950000000000E+01 -2.660015790959975E-03 -1.292956982676435E-05
-4.947500000000E+01 -2.679012625455163E-03 -1.295168455338854E-05
-4.945000000000E+01 -2.696687836354092E-03 -1.297287652105041E-05
-4.942500000000E+01 -2.713173720155677E-03 -1.299323921020848E-05
-4.940000000000E+01 -2.728586723092549E-03 -1.301285489685446E-05
-4.937500000000E+01 -2.743029535156739E-03 -1.303179613317746E-05
-4.935000000000E+01 -2.756592904799086E-03 -1.305012703071384E-05
-4.932500000000E+01 -2.769357205609817E-03 -1.306790436811096E-05
-4.930000000000E+01 -2.781393785937547E-03 -1.308517854538933E-05
-4.927500000000E+01 -2.792766130358530E-03 -1.310199440514772E-05
-4.925000000000E+01 -2.803530859089807E-03 -1.311839193916366E-05
-4.922500000000E+01 -2.813738588392772E-03 -1.313440689668818E-05
-4.920000000000E+01 -2.823434672029670E-03 -1.315007130862473E-05
-4.917500000000E+01 -2.832659841071075E-03 -1.316541393982589E-05
-4.915000000000E+01 -2.841450756873000E-03 -1.318046067998866E-05
-4.912500000000E+01 -2.849840489863483E-03 -1.319523488208848E-05
-4.910000000000E+01 -2.857858934891400E-03 -1.320975765595692E-05
-4.907500000000E+01 -2.865533172273081E-03 -1.322404812346293E-05
-4.905000000000E+01 -2.872887782290115E-03 -1.323812364078343E-05
-4.902500000000E+01 -2.879945119722762E-03 -1.325199999241738E-05
-4.900000000000E+01 -2.886725554010754E-03 -1.326569156089940E-05
-4.897500000000E+01 -2.893247679796063E-03 -1.327921147557491E-05
-4.895000000000E+01 -2.899528501894920E-03 -1.329257174329817E-05
-4.892500000000E+01 -2.905583598148865E-03 -1.330578336349381E-05
-4.890000000000E+01 -2.911427263100654E-03 -1.331885642966403E-05
-4.887500000000E+01 -2.917072635014256E-03 -1.333180021912250E-05
-4.885000000000E+01 -2.922531808397512E-03 -1.334462327248242E-05
-4.882500000000E+01 -2.927815933880352E-03 -1.335733346420761E-05
-4.880000000000E+01 -2.932935307042751E-03 -1.336993806535420E-05
-4.877500000000E+01 -2.937899447565022E-03 -1.338244379947317E-05
-4.875000000000E+01 -2.942717169887114E-03 -1.339485689251293E-05
-4.872500000000E+01 -2.947396646402365E-03 -1.340718311744639E-05
-4.870000000000E+01 -2.951945464075353E-03 -1.341942783425178E-05
-4.867500000000E+01 -2.956370675255926E-03 -1.343159602579268E-05
-4.865000000000E+01 -2.960678843361865E-03 -1.344369233007294E-05
-4.862500000000E+01 -2.964876084016305E-03 -1.345572106928031E-05
-4.860000000000E+01 -2.968968102151550E-03 -1.346768627598050E-05
-4.857500000000E+01 -2.972960225527675E-03 -1.347959171677917E-05
-4.855000000000E+01 -2.976857435058415E-03 -1.349144091372814E-05
-4.852500000000E+01 -2.980664392289680E-03 -1.350323716372074E-05
-4.850000000000E+01 -2.984385464334061E-03 -1.351498355609029E-05
-4.847500000000E+01 -2.988024746529072E-03 -1.352668298860095E-05
-4.845000000000E+01 -2.991586083055324E-03 -1.353833818199817E-05
-4.842500000000E+01 -2.995073085723619E-03 -1.354995169326550E-05
-4.840000000000E+01 -2.998489151116107E-03 -1.356152592771974E-05
-4.837500000000E+01 -3.001837476245611E-03 -1.357306315005923E-05
-4.835000000000E+01 -3.005121072879396E-03 -1.358456549446991E-05
-4.832500000000E+01 -3.008342780656760E-03 -1.359603497387880E-05
-4.830000000000E+01 -3.011505279116917E-03 -1.360747348843939E-05
-4.827500000000E+01 -3.014611098739873E-03 -1.361888283331885E-05
-4.825000000000E+01 -3.017662631093246E-03 -1.363026470585540E-05
-4.822500000000E+01 -3.020662138167414E-03 -1.364162071214210E-05
-4.820000000000E+01 -3.023611760973339E-03 -1.365295237309036E-05
-4.817500000000E+01 -3.026513527469563E-03 -1.366426113001977E-05
-4.815000000000E+01 -3.029369359878283E-03 -1.367554834981734E-05
-4.812500000000E+01 -3.032181081444259E-03 -1.368681532970295E-05
-4.810000000000E+01 -3.034950422685318E-03 -1.369806330163630E-05
-4.807500000000E+01 -3.037679027177901E-03 -1.370929343639584E-05
-4.805000000000E+01 -3.040368456917714E-03 -1.372050684735776E-05
-4.802500000000E+01 -3.043020197290711E-03 -1.373170459400008E-05
-4.800000000000E+01 -3.045635661687194E-03 -1.374288768515500E-05
-4.797500000000E+01 -3.048216195788572E-03 -1.375405708203038E-05
-4.795000000000E+01 -3.050763081552701E-03 -1.376521370101837E-05
-4.792500000000E+01 -3.053277540922884E-03 -1.377635841630934E-05
-4.790000000000E+01 -3.055760739282146E-03 -1.378749206232610E-05
-4.787500000000E+01 -3.058213788672787E-03 -1.379861543599229E-05
-4.785000000000E+01 -3.060637750799716E-03 -1.380972929884881E-05
-4.782500000000E+01 -3.063033639834146E-03 -1.382083437902904E-05
-4.780000000000E+01 -3.065402425032815E-03 -1.383193137310394E-05
-4.777500000000E+01 -3.067745033186787E-03 -1.384302094780737E-05
-4.775000000000E+01 -3.070062350912575E-03 -1.385410374164982E-05
-4.772500000000E+01 -3.072355226797201E-03 -1.386518036642925E-05
-4.770000000000E+01 -3.074624473407688E-03 -1.387625140864670E-05
-4.767500000000E+01 -3.076870869175463E-03 -1.388731743083318E-05
-4.765000000000E+01 -3.079095160163659E-03 -1.389837897279438E-05
-4.762500000000E+01 -3.081298061726827E-03 -1.390943655277930E-05
-4.760000000000E+01 -3.083480260069389E-03 -1.392049066857781E-05
-4.757500000000E+01 -3.085642413711085E-03 -1.393154179855220E-05
-4.755000000000E+01 -3.087785154864795E-03 -1.394259040260760E-05
-4.752500000000E+01 -3.089909090733536E-03 -1.395363692310478E-05
-4.750000000000E+01 -3.092014804731692E-03 -1.396468178571992E-05
-4.747500000000E+01 -3.094102857635494E-03 -1.397572540025463E-05
-4.745000000000E+01 -3.096173788667948E-03 -1.398676816139931E-05
-4.742500000000E+01 -3.098228116521851E-03 -1.399781044945352E-05
-4.740000000000E+01 -3.100266340325647E-03 -1.400885263100547E-05
-4.737500000000E+01 -3.102288940555122E-03 -1.401989505957385E-05
-4.735000000000E+01 -3.104296379895119E-03 -1.403093807621400E-05
-4.732500000000E+01 -3.106289104053754E-03 -1.404198201009103E-05
-4.730000000000E+01 -3.108267542532790E-03 -1.405302717902183E-05
-4.727500000000E+01 -3.110232109356286E-03 -1.406407388998764E-05
-4.725000000000E+01 -3.112183203760741E-03 -1.407512243961979E-05
-4.722500000000E+01 -3.114121210848484E-03 -1.408617311465904E-05
-4.720000000000E+01 -3.116046502207026E-03 -1.409722619239175E-05
-4.717500000000E+01 -3.117959436496097E-03 -1.410828194106236E-05
-4.715000000000E+01 -3.119860360004526E-03 -1.411934062026528E-05
-4.712500000000E+01 -3.121749607178707E-03 -1.413040248131663E-05
-4.710000000000E+01 -3.123627501124253E-03 -1.414146776760699E-05
-4.707500000000E+01 -3.125494354082428E-03 -1.415253671493638E-05
-4.705000000000E+01 -3.127350467882791E-03 -1.416360955183286E-05
-4.702500000000E+01 -3.129196134373613E-03 -1.417468649985473E-05
-4.700000000000E+01 -3.131031635831074E-03 -1.418576777387876E-05
-4.697500000000E+01 -3.132857245348561E-03 -1.419685358237347E-05
-4.695000000000E+01 -3.134673227207262E-03 -1.420794412765998E-05
-4.692500000000E+01 -3.136479837228823E-03 -1.421903960615988E-05
-4.690000000000E+01 -3.138277323111511E-03 -1.423014020863151E-05
-4.687500000000E+01 -3.140065924750310E-03 -1.424124612039495E-05
-4.685000000000E+01 -3.141845874542200E-03 -1.425235752154657E-05
-4.682500000000E+01 -3.143617397677018E-03 -1.426347458716388E-05
-4.680000000000E+01 -3.145380712415307E-03 -1.427459748750012E-05
-4.677500000000E+01 -3.147136030353026E-03 -1.428572638817099E-05
-4.675000000000E+01 -3.148883556674668E-03 -1.429686145033196E-05
-4.672500000000E+01 -3.150623490394508E-03 -1.430800283084850E-05
-4.670000000000E+01 -3.152356024587490E-03 -1.431915068245736E-05
-4.667500000000E+01 -3.154081346609563E-03 -1.433030515392259E-05
-4.665000000000E+01 -3.155799638308524E-03 -1.434146639018268E-05
-4.662500000000E+01 -3.157511076225434E-03 -1.435263453249254E-05
-4.660000000000E+01 -3.159215831787402E-03 -1.436380971855912E-05
-4.657500000000E+01 -3.160914071492027E-03 -1.437499208267042E-05
-4.655000000000E+01 -3.162605957083929E-03 -1.438618175582028E-05
-4.652500000000E+01 -3.164291645723745E-03 -1.439737886582639E-05
-4.650000000000E+01 -3.165971290150062E-03 -1.440858353744458E-05
-4.647500000000E+01 -3.167645038834494E-03 -1.441979589247733E-05
-4.645000000000E+01 -3.169313036130223E-03 -1.443101604987855E-05
-4.642500000000E+01 -3.170975422414536E-03 -1.444224412585341E-05
-4.640000000000E+01 -3.172632334225547E-03 -1.445348023395443E-05
-4.637500000000E+01 -3.174283904392995E-03 -1.446472448517344E-05
-4.635000000000E+01 -3.175930262164108E-03 -1.447597698803000E-05
-4.632500000000E+01 -3.177571533324335E-03 -1.448723784865590E-05
-4.630000000000E+01 -3.179207840312986E-03 -1.449850717087683E-05
-4.627500000000E+01 -3.180839302334588E-03 -1.450978505629032E-05
-4.625000000000E+01 -3.182466035465619E-03 -1.452107160434079E-05
-4.622500000000E+01 -3.184088152757233E-03 -1.453236691239160E-05
-4.620000000000E+01 -3.185705764333799E-03 -1.454367107579437E-05
-4.617500000000E+01 -3.187318977487755E-03 -1.455498418795555E-05
-4.615000000000E+01 -3.188927896770720E-03 -1.456630634040033E-05
-4.612500000000E+01 -3.190532624081224E-03 -1.457763762283449E-05
-4.610000000000E+01 -3.192133258748974E-03 -1.458897812320325E-05
-4.607500000000E+01 -3.193729897616041E-03 -1.460032792774850E-05
-4.605000000000E+01 -3.195322635114916E-03 -1.461168712106371E-05
-4.602500000000E+01 -3.196911563343747E-03 -1.462305578614645E-05
-4.600000000000E+01 -3.198496772138674E-03 -1.463443400444947E-05
-4.597500000000E+01 -3.200078349143561E-03 -1.464582185592948E-05
-4.595000000000E+01 -3.201656379877245E-03 -1.465721941909459E-05
-4.592500000000E+01 -3.203230947798090E-03 -1.466862677104935E-05
-4.590000000000E+01 -3.204802134366543E-03 -1.468004398753905E-05
-4.587500000000E+01 -3.206370019105103E-03 -1.469147114299156E-05
-4.585000000000E+01 -3.207934679656462E-03 -1.470290831055815E-05
-4.582500000000E+01 -3.209496191839246E-03 -1.471435556215299E-05
-4.580000000000E+01 -3.211054629702095E-03 -1.472581296849051E-05
-4.577500000000E+01 -3.212610065575632E-03 -1.473728059912257E-05
-4.575000000000E+01 -3.214162570122713E-03 -1.474875852247338E-05
-4.572500000000E+01 -3.215712212386834E-03 -1.476024680587350E-05
-4.570000000000E+01 -3.217259059839025E-03 -1.477174551559296E-05
-4.567500000000E+01 -3.218803178423016E-03 -1.478325471687275E-05
-4.565000000000E+01 -3.220344632598844E-03 -1.479477447395576E-05
-4.562500000000E+01 -3.221883485384984E-03 -1.480630485011604E-05
-4.560000000000E+01 -3.223419798399219E-03 -1.481784590768776E-05
-4.557500000000E+01 -3.224953631897875E-03 -1.482939770809270E-05
-4.555000000000E+01 -3.226485044813959E-03 -1.484096031186700E-05
-4.552500000000E+01 -3.228014094793888E-03 -1.485253377868705E-05
-4.550000000000E+01 -3.229540838233093E-03 -1.486411816739448E-05
-4.547500000000E+01 -3.231065330310412E-03 -1.487571353602019E-05
-4.545000000000E+01 -3.232587625021361E-03 -1.488731994180806E-05
-4.542500000000E+01 -3.234107775210346E-03 -1.489893744123728E-05
-4.540000000000E+01 -3.235625832601813E-03 -1.491056609004436E-05
-4.537500000000E+01 -3.237141847830335E-03 -1.492220594324427E-05
-4.535000000000E+01 -3.238655870469911E-03 -1.493385705515114E-05
-4.532500000000E+01 -3.240167949062120E-03 -1.494551947939787E-05
-4.530000000000E+01 -3.241678131143548E-03 -1.495719326895554E-05
-4.527500000000E+01 -3.243186463272226E-03 -1.496887847615199E-05
-4.525000000000E+01 -3.244692991053382E-03 -1.498057515268991E-05
-4.522500000000E+01 -3.246197759164206E-03 -1.499228334966425E-05
-4.520000000000E+01 -3.247700811377982E-03 -1.500400311757931E-05
-4.517500000000E+01 -3.249202190587469E-03 -1.501573450636491E-05
-4.515000000000E+01 -3.250701938827608E-03 -1.502747756539272E-05
-4.512500000000E+01 -3.252200097297222E-03 -1.503923234349126E-05
-4.510000000000E+01 -3.253696706380528E-03 -1.505099888896131E-05
-4.507500000000E+01 -3.255191805667669E-03 -1.506277724958998E-05
-4.505000000000E+01 -3.256685433974743E-03 -1.507456747266524E-05
-4.502500000000E+01 -3.258177629363185E-03 -1.508636960498922E-05
-4.500000000000E+01 -3.259668429158656E-03 -1.509818369289174E-05
-4.497500000000E+01 -3.261157869969260E-03 -1.511000978224303E-05
-4.495000000000E+01 -3.262645987703290E-03 -1.512184791846624E-05
-4.492500000000E+01 -3.264132817586495E-03 -1.513369814654980E-05
-4.490000000000E+01 -3.265618394178707E-03 -1.514556051105877E-05
-4.487500000000E+01 -3.267102751390132E-03 -1.515743505614667E-05
-4.485000000000E+01 -3.268585922497077E-03 -1.516932182556627E-05
-4.482500000000E+01 -3.270067940157210E-03 -1.518122086268076E-05
-4.480000000000E+01 -3.271548836424533E-03 -1.519313221047385E-05
-4.477500000000E+01 -3.273028642763711E-03 -1.520505591156023E-05
-4.475000000000E+01 -3.274507390064126E-03 -1.521699200819530E-05
-4.472500000000E+01 -3.275985108653532E-03 -1.522894054228489E-05
-4.470000000000E+01 -3.277461828311292E-03 -1.524090155539462E-05
-4.467500000000E+01 -3.278937578281240E-03 -1.525287508875893E-05
-4.465000000000E+01 -3.280412387284235E-03 -1.526486118328986E-05
-4.462500000000E+01 -3.281886283530287E-03 -1.527685987958603E-05
-4.460000000000E+01 -3.283359294730371E-03 -1.528887121794041E-05
-4.457500000000E+01 -3.284831448108064E-03 -1.530089523834894E-05
-4.455000000000E+01 -3.286302770410551E-03 -1.531293198051825E-05
-4.452500000000E+01 -3.287773287919637E-03 -1.532498148387343E-05
-4.450000000000E+01 -3.289243026462338E-03 -1.533704378756542E-05
-4.447500000000E+01 -3.290712011421105E-03 -1.534911893047842E-05
-4.445000000000E+01 -3.292180267743954E-03 -1.536120695123706E-05
-4.442500000000E+01 -3.293647819954149E-03 -1.537330788821292E-05
-4.440000000000E+01 -3.295114692159742E-03 -1.538542177953204E-05
-4.437500000000E+01 -3.296580908062830E-03 -1.539754866308055E-05
-4.435000000000E+01 -3.298046490968456E-03 -1.540968857651169E-05
-4.432500000000E+01 -3.299511463793587E-03 -1.542184155725185E-05
-4.430000000000E+01 -3.300975849075390E-03 -1.543400764250663E-05
-4.427500000000E+01 -3.302439668979763E-03 -1.544618686926684E-05
-4.425000000000E+01 -3.303902945309343E-03 -1.545837927431402E-05
-4.422500000000E+01 -3.305365699511386E-03 -1.547058489422626E-05
-4.420000000000E+01 -3.306827952685464E-03 -1.548280376538360E-05
-4.417500000000E+01 -3.308289725590978E-03 -1.549503592397344E-05
-4.415000000000E+01 -3.309751038654406E-03 -1.550728140599561E-05
-4.412500000000E+01 -3.311211911976467E-03 -1.551954024726743E-05
-4.410000000000E+01 -3.312672365339108E-03 -1.553181248342878E-05
-4.407500000000E+01 -3.314132418212034E-03 -1.554409814994699E-05
-4.405000000000E+01 -3.315592089759549E-03 -1.555639728212115E-05
-4.402500000000E+01 -3.317051398846861E-03 -1.556870991508714E-05
-4.400000000000E+01 -3.318510364046393E-03 -1.558103608382183E-05
-4.397500000000E+01 -3.319969003643802E-03 -1.559337582314772E-05
-4.395000000000E+01 -3.321427335644063E-03 -1.560572916773682E-05
-4.392500000000E+01 -3.322885377777143E-03 -1.561809615211503E-05
-4.390000000000E+01 -3.324343147503795E-03 -1.563047681066630E-05
-4.387500000000E+01 -3.325800662021031E-03 -1.564287117763643E-05
-4.385000000000E+01 -3.327257938267489E-03 -1.565527928713695E-05
-4.382500000000E+01 -3.328714992928735E-03 -1.566770117314908E-05
-4.380000000000E+01 -3.330171842442454E-03 -1.568013686952705E-05
-4.377500000000E+01 -3.331628503003325E-03 -1.569258641000213E-05
-4.375000000000E+01 -3.333084990568054E-03 -1.570504982818595E-05
-4.372500000000E+01 -3.334541320860067E-03 -1.571752715757387E-05
-4.370000000000E+01 -3.335997509374220E-03 -1.573001843154854E-05
-4.367500000000E+01 -3.337453571381377E-03 -1.574252368338303E-05
-4.365000000000E+01 -3.338909521932739E-03 -1.575504294624390E-05
-4.362500000000E+01 -3.340365375864348E-03 -1.576757625319479E-05
-4.360000000000E+01 -3.341821147801200E-03 -1.578012363719918E-05
-4.357500000000E+01 -3.343276852161502E-03 -1.579268513112330E-05
-4.355000000000E+01 -3.344732503160586E-03 -1.580526076773928E-05
-4.352500000000E+01 -3.346188114814934E-03 -1.581785057972789E-05
-4.350000000000E+01 -3.347643700946114E-03 -1.583045459968146E-05
-4.347500000000E+01 -3.349099275184491E-03 -1.584307286010656E-05
-4.345000000000E+01 -3.350554850972754E-03 -1.585570539342658E-05
-4.342500000000E+01 -3.352010441569866E-03 -1.586835223198445E-05
-4.340000000000E+01 -3.353466060054276E-03 -1.588101340804531E-05
-4.337500000000E+01 -3.354921719327530E-03 -1.589368895379890E-05
-4.335000000000E+01 -3.356377432117578E-03 -1.590637890136197E-05
-4.332500000000E+01 -3.357833210982089E-03 -1.591908328278079E-05
-4.330000000000E+01 -3.359289068311616E-03 -1.593180213003348E-05
-4.327500000000E+01 -3.360745016332837E-03 -1.594453547503231E-05
-4.325000000000E+01 -3.362201067111552E-03 -1.595728334962607E-05
-4.322500000000E+01 -3.363657232555711E-03 -1.597004578560201E-05
-4.320000000000E+01 -3.365113524418366E-03 -1.598282281468816E-05
-4.317500000000E+01 -3.366569954300538E-03 -1.599561446855574E-05
-4.315000000000E+01 -3.368026533654083E-03 -1.600842077882051E-05
-4.312500000000E+01 -3.369483273784349E-03 -1.602124177704568E-05
-4.310000000000E+01 -3.370940185852923E-03 -1.603407749474321E-05
-4.307500000000E+01 -3.372397280880336E-03 -1.604692796337615E-05
-4.305000000000E+01 -3.373854569748470E-03 -1.605979321436043E-05
-4.302500000000E+01 -3.375312063203291E-03 -1.607267327906673E-05
-4.300000000000E+01 -3.376769771857137E-03 -1.608556818882220E-05
-4.297500000000E+01 -3.378227706191273E-03 -1.609847797491259E-05
-4.295000000000E+01 -3.379685876558105E-03 -1.611140266858375E-05
-4.292500000000E+01 -3.381144293183716E-03 -1.612434230104347E-05
-4.290000000000E+01 -3.382602966169916E-03 -1.613729690346303E-05
-4.287500000000E+01 -3.384061905496569E-03 -1.615026650697916E-05
-4.285000000000E+01 -3.385521121023790E-03 -1.616325114269524E-05
-4.282500000000E+01 -3.386980622493984E-03 -1.617625084168344E-05
-4.280000000000E+01 -3.388440419534016E-03 -1.618926563498579E-05
-4.277500000000E+01 -3.389900521657226E-03 -1.620229555361609E-05
-4.275000000000E+01 -3.391360938265343E-03 -1.621534062856124E-05
-4.272500000000E+01 -3.392821678650650E-03 -1.622840089078265E-05
-4.270000000000E+01 -3.394282751997615E-03 -1.624147637121806E-05
-4.267500000000E+01 -3.395744167385093E-03 -1.625456710078241E-05
-4.265000000000E+01 -3.397205933787857E-03 -1.626767311036976E-05
-4.262500000000E+01 -3.398668060078621E-03 -1.628079443085446E-05
-4.260000000000E+01 -3.400130555029702E-03 -1.629393109309241E-05
-4.257500000000E+01 -3.401593427314817E-03 -1.630708312792269E-05
