#Spectra: 1
Emin______Emax      -5.000000000000000E+01  5.000000000000000E+01
EminPole__EmaxPole   1.668794192520093E+01  3.928252005643972E+01
dE________Gamma      2.500000000000000E-02  1.000000000000000E-01
Energy               Re[0]                  Im[0]                
-5.000000000000E+01 -1.602712808127602E-03 -1.201036174244199E-05
-4.997500000000E+01 -1.699813563224170E-03 -1.208739787783227E-05
-4.995000000000E+01 -1.794175017824786E-03 -1.216252553539364E-05
-4.992500000000E+01 -1.884284088877611E-03 -1.223467127623570E-05
-4.990000000000E+01 -1.969042123012925E-03 -1.230305510519318E-05
-4.987500000000E+01 -2.047790868014304E-03 -1.236720899018932E-05
-4.985000000000E+01 -2.120267330671696E-03 -1.242694496868470E-05
-4.982500000000E+01 -2.186519287886979E-03 -1.248229534579714E-05
-4.980000000000E+01 -2.246811157653902E-03 -1.253344603606254E-05
-4.977500000000E+01 -2.301539618523805E-03 -1.258067679290554E-05
-4.975000000000E+01 -2.351167548790208E-03 -1.262431440530434E-05
-4.972500000000E+01 -2.396177321639967E-03 -1.266469960101223E-05
-4.970000000000E+01 -2.437040655859716E-03 -1.270216567577083E-05
-4.967500000000E+01 -2.474201015670674E-03 -1.273702601217182E-05
-4.965000000000E+01 -2.508064756480285E-03 -1.276956779488519E-05
-4.962500000000E+01 -2.538997963040500E-03 -1.280004975954062E-05
-4.960000000000E+01 -2.567326753550260E-03 -1.282870239815114E-05
-4.957500000000E+01 -2.593339529559969E-03 -1.285572954417955E-05
-4.955000000000E+01 -2.617290186065111E-03 -1.288131063894550E-05
-4.952500000000E+01 -2.639401672465835E-03 -1.290560324760688E-05
-4.950000000000E+01 -2.659869547088828E-03 -1.292874557147888E-05
-4.947500000000E+01 -2.678865330325905E-03 -1.295085881847133E-05
-4.945000000000E+01 -2.696539562446447E-03 -1.297204936499010E-05
-4.942500000000E+01 -2.713024532691284E-03 -1.299241068555126E-05
-4.940000000000E+01 -2.728436680904643E-03 -1.301202505091658E-05
-4.937500000000E+01 -2.742878691444953E-03 -1.303096500866300E-05
-4.935000000000E+01 -2.756441307784615E-03 -1.304929466625168E-05
-4.932500000000E+01 -2.769204899104596E-03 -1.306707079872070E-05
-4.930000000000E+01 -2.781240809839498E-03 -1.308434380288701E-05
-4.927500000000E+01 -2.792612521082887E-03 -1.310115851849891E-05
-4.925000000000E+01 -2.803376649945847E-03 -1.311755493479182E-05
-4.922500000000E+01 -2.813583809913172E-03 -1.313356879874456E-05
-4.920000000000E+01 -2.823279352259184E-03 -1.314923213922457E-05
-4.917500000000E+01 -2.832504005820175E-03 -1.316457371925591E-05
-4.915000000000E+01 -2.841294429941164E-03 -1.317961942689017E-05
-4.912500000000E+01 -2.849683693236114E-03 -1.319439261361828E-05
-4.910000000000E+01 -2.857701688914226E-03 -1.320891438793012E-05
-4.907500000000E+01 -2.865375495806370E-03 -1.322320387047916E-05
-4.905000000000E+01 -2.872729692845877E-03 -1.323727841633912E-05
-4.902500000000E+01 -2.879786633586859E-03 -1.325115380900560E-05
-4.900000000000E+01 -2.886566686351818E-03 -1.326484443009907E-05
-4.897500000000E+01 -2.893088444762881E-03 -1.327836340813042E-05
-4.895000000000E+01 -2.899368912703537E-03 -1.329172274919066E-05
-4.892500000000E+01 -2.905423667160980E-03 -1.330493345200531E-05
-4.890000000000E+01 -2.911267001893969E-03 -1.331800560943484E-05
-4.887500000000E+01 -2.916912054445918E-03 -1.333094849820328E-05
-4.885000000000E+01 -2.922370918661273E-03 -1.334377065838074E-05
-4.882500000000E+01 -2.927654744558550E-03 -1.335647996393071E-05
-4.880000000000E+01 -2.932773827153006E-03 -1.336908368544690E-05
-4.877500000000E+01 -2.937737685602868E-03 -1.338158854605289E-05
-4.875000000000E+01 -2.942555133864744E-03 -1.339400077130113E-05
-4.872500000000E+01 -2.947234343883792E-03 -1.340632613379778E-05
-4.870000000000E+01 -2.951782902208465E-03 -1.341856999318000E-05
-4.867500000000E+01 -2.956207860801883E-03 -1.343073733199462E-05
-4.865000000000E+01 -2.960515782721960E-03 -1.344283278795053E-05
-4.862500000000E+01 -2.964712783256383E-03 -1.345486068296060E-05
-4.860000000000E+01 -2.968804567024669E-03 -1.346682504933420E-05
-4.857500000000E+01 -2.972796461494719E-03 -1.347872965343733E-05
-4.855000000000E+01 -2.976693447307152E-03 -1.349057801709776E-05
-4.852500000000E+01 -2.980500185752233E-03 -1.350237343699916E-05
-4.850000000000E+01 -2.984221043703112E-03 -1.351411900227825E-05
-4.847500000000E+01 -2.987860116272715E-03 -1.352581761051491E-05
-4.845000000000E+01 -2.991421247430873E-03 -1.353747198228147E-05
-4.842500000000E+01 -2.994908048790352E-03 -1.354908467439869E-05
-4.840000000000E+01 -2.998323916747064E-03 -1.356065809203021E-05
-4.837500000000E+01 -3.001672048138524E-03 -1.357219449973049E-05
-4.835000000000E+01 -3.004955454566865E-03 -1.358369603154935E-05
-4.832500000000E+01 -3.008176975515677E-03 -1.359516470028588E-05
-4.830000000000E+01 -3.011339290377248E-03 -1.360660240597228E-05
-4.827500000000E+01 -3.014444929492846E-03 -1.361801094366165E-05
-4.825000000000E+01 -3.017496284298972E-03 -1.362939201058411E-05
-4.822500000000E+01 -3.020495616661959E-03 -1.364074721273020E-05
-4.820000000000E+01 -3.023445067475402E-03 -1.365207807091458E-05
-4.817500000000E+01 -3.026346664586647E-03 -1.366338602636498E-05
-4.815000000000E+01 -3.029202330112476E-03 -1.367467244588126E-05
-4.812500000000E+01 -3.032013887197753E-03 -1.368593862660061E-05
-4.810000000000E+01 -3.034783066265337E-03 -1.369718580040408E-05
-4.807500000000E+01 -3.037511510801614E-03 -1.370841513799559E-05
-4.805000000000E+01 -3.040200782716617E-03 -1.371962775268023E-05
-4.802500000000E+01 -3.042852367314885E-03 -1.373082470386835E-05
-4.800000000000E+01 -3.045467677909246E-03 -1.374200700032800E-05
-4.797500000000E+01 -3.048048060107283E-03 -1.375317560320544E-05
-4.795000000000E+01 -3.050594795796598E-03 -1.376433142883441E-05
-4.792500000000E+01 -3.053109106853451E-03 -1.377547535134940E-05
-4.790000000000E+01 -3.055592158597047E-03 -1.378660820511990E-05
-4.787500000000E+01 -3.058045063008693E-03 -1.379773078701865E-05
-4.785000000000E+01 -3.060468881735061E-03 -1.380884385853787E-05
-4.782500000000E+01 -3.062864628891793E-03 -1.381994814776436E-05
-4.780000000000E+01 -3.065233273682442E-03 -1.383104435122453E-05
-4.777500000000E+01 -3.067575742847305E-03 -1.384213313560951E-05
-4.775000000000E+01 -3.069892922954274E-03 -1.385321513938897E-05
-4.772500000000E+01 -3.072185662543810E-03 -1.386429097432161E-05
-4.770000000000E+01 -3.074454774138461E-03 -1.387536122687104E-05
-4.767500000000E+01 -3.076701036126865E-03 -1.388642645953212E-05
-4.765000000000E+01 -3.078925194531341E-03 -1.389748721207590E-05
-4.762500000000E+01 -3.081127964667160E-03 -1.390854400271822E-05
-4.760000000000E+01 -3.083310032701179E-03 -1.391959732921687E-05
-4.757500000000E+01 -3.085472057116959E-03 -1.393064766990352E-05
-4.755000000000E+01 -3.087614670092778E-03 -1.394169548465377E-05
-4.752500000000E+01 -3.089738478798359E-03 -1.395274121579985E-05
-4.750000000000E+01 -3.091844066616030E-03 -1.396378528899071E-05
-4.747500000000E+01 -3.093931994291341E-03 -1.397482811400148E-05
-4.745000000000E+01 -3.096002801017685E-03 -1.398587008549721E-05
-4.742500000000E+01 -3.098057005459456E-03 -1.399691158375296E-05
-4.740000000000E+01 -3.100095106717719E-03 -1.400795297533336E-05
-4.737500000000E+01 -3.102117585241889E-03 -1.401899461373417E-05
-4.735000000000E+01 -3.104124903691447E-03 -1.403003683998883E-05
-4.732500000000E+01 -3.106117507750061E-03 -1.404107998324121E-05
-4.730000000000E+01 -3.108095826895948E-03 -1.405212436128752E-05
-4.727500000000E+01 -3.110060275130481E-03 -1.406317028108935E-05
-4.725000000000E+01 -3.112011251668224E-03 -1.407421803925865E-05
-4.722500000000E+01 -3.113949141590432E-03 -1.408526792251785E-05
-4.720000000000E+01 -3.115874316464213E-03 -1.409632020813512E-05
-4.717500000000E+01 -3.117787134929582E-03 -1.410737516433758E-05
-4.715000000000E+01 -3.119687943256457E-03 -1.411843305070291E-05
-4.712500000000E+01 -3.121577075872843E-03 -1.412949411853077E-05
-4.710000000000E+01 -3.123454855866637E-03 -1.414055861119596E-05
-4.707500000000E+01 -3.125321595461960E-03 -1.415162676448320E-05
-4.705000000000E+01 -3.127177596471811E-03 -1.416269880690562E-05
-4.702500000000E+01 -3.129023150728481E-03 -1.417377496000712E-05
-4.700000000000E+01 -3.130858540492663E-03 -1.418485543865045E-05
-4.697500000000E+01 -3.132684038842751E-03 -1.419594045129055E-05
-4.695000000000E+01 -3.134499910045416E-03 -1.420703020023531E-05
-4.692500000000E+01 -3.136306409908301E-03 -1.421812488189347E-05
-4.690000000000E+01 -3.138103786116063E-03 -1.422922468701084E-05
-4.687500000000E+01 -3.139892278550506E-03 -1.424032980089546E-05
-4.685000000000E+01 -3.141672119595879E-03 -1.425144040363190E-05
-4.682500000000E+01 -3.143443534429687E-03 -1.426255667028605E-05
-4.680000000000E+01 -3.145206741300433E-03 -1.427367877110007E-05
-4.677500000000E+01 -3.146961951792538E-03 -1.428480687167865E-05
-4.675000000000E+01 -3.148709371079172E-03 -1.429594113316684E-05
-4.672500000000E+01 -3.150449198163700E-03 -1.430708171241952E-05
-4.670000000000E+01 -3.152181626110483E-03 -1.431822876216366E-05
-4.667500000000E+01 -3.153906842265185E-03 -1.432938243115323E-05
-4.665000000000E+01 -3.155625028465619E-03 -1.434054286431724E-05
-4.662500000000E+01 -3.157336361243136E-03 -1.435171020290128E-05
-4.660000000000E+01 -3.159041012015437E-03 -1.436288458460304E-05
-4.657500000000E+01 -3.160739147270988E-03 -1.437406614370187E-05
-4.655000000000E+01 -3.162430928745543E-03 -1.438525501118254E-05
-4.652500000000E+01 -3.164116513591087E-03 -1.439645131485459E-05
-4.650000000000E+01 -3.165796054537825E-03 -1.440765517946518E-05
-4.647500000000E+01 -3.167469700049200E-03 -1.441886672680904E-05
-4.645000000000E+01 -3.169137594470496E-03 -1.443008607583188E-05
-4.642500000000E+01 -3.170799878171268E-03 -1.444131334273123E-05
-4.640000000000E+01 -3.172456687682125E-03 -1.445254864105194E-05
-4.637500000000E+01 -3.174108155825519E-03 -1.446379208177838E-05
-4.635000000000E+01 -3.175754411841595E-03 -1.447504377342283E-05
-4.632500000000E+01 -3.177395581508854E-03 -1.448630382211002E-05
-4.630000000000E+01 -3.179031787259897E-03 -1.449757233165863E-05
-4.627500000000E+01 -3.180663148292680E-03 -1.450884940365924E-05
-4.625000000000E+01 -3.182289780677333E-03 -1.452013513754967E-05
-4.622500000000E+01 -3.183911797458763E-03 -1.453142963068660E-05
-4.620000000000E+01 -3.185529308755334E-03 -1.454273297841527E-05
-4.617500000000E+01 -3.187142421853508E-03 -1.455404527413570E-05
-4.615000000000E+01 -3.188751241299209E-03 -1.456536660936703E-05
-4.612500000000E+01 -3.190355868985335E-03 -1.457669707380877E-05
-4.610000000000E+01 -3.191956404236183E-03 -1.458803675540024E-05
-4.607500000000E+01 -3.193552943888434E-03 -1.459938574037750E-05
-4.605000000000E+01 -3.195145582369420E-03 -1.461074411332813E-05
-4.602500000000E+01 -3.196734411772218E-03 -1.462211195724396E-05
-4.600000000000E+01 -3.198319521927998E-03 -1.463348935357231E-05
-4.597500000000E+01 -3.199901000475850E-03 -1.464487638226437E-05
-4.595000000000E+01 -3.201478932929835E-03 -1.465627312182273E-05
-4.592500000000E+01 -3.203053402743811E-03 -1.466767964934678E-05
-4.590000000000E+01 -3.204624491373631E-03 -1.467909604057658E-05
-4.587500000000E+01 -3.206192278337545E-03 -1.469052236993472E-05
-4.585000000000E+01 -3.207756841273833E-03 -1.470195871056751E-05
-4.582500000000E+01 -3.209318255997066E-03 -1.471340513438403E-05
-4.580000000000E+01 -3.210876596551735E-03 -1.472486171209397E-05
-4.577500000000E+01 -3.212431935264488E-03 -1.473632851324429E-05
-4.575000000000E+01 -3.213984342794282E-03 -1.474780560625431E-05
-4.572500000000E+01 -3.215533888180824E-03 -1.475929305845008E-05
-4.570000000000E+01 -3.217080638891436E-03 -1.477079093609684E-05
-4.567500000000E+01 -3.218624660866183E-03 -1.478229930443109E-05
-4.565000000000E+01 -3.220166018561541E-03 -1.479381822769116E-05
-4.562500000000E+01 -3.221704774992560E-03 -1.480534776914672E-05
-4.560000000000E+01 -3.223240991773575E-03 -1.481688799112755E-05
-4.557500000000E+01 -3.224774729157626E-03 -1.482843895505102E-05
-4.555000000000E+01 -3.226306046074428E-03 -1.484000072144908E-05
-4.552500000000E+01 -3.227835000167260E-03 -1.485157334999383E-05
-4.550000000000E+01 -3.229361647828398E-03 -1.486315689952279E-05
-4.547500000000E+01 -3.230886044233661E-03 -1.487475142806272E-05
-4.545000000000E+01 -3.232408243375575E-03 -1.488635699285340E-05
-4.542500000000E+01 -3.233928298095648E-03 -1.489797365037004E-05
-4.540000000000E+01 -3.235446260115391E-03 -1.490960145634509E-05
-4.537500000000E+01 -3.236962180066684E-03 -1.492124046578970E-05
-4.535000000000E+01 -3.238476107520709E-03 -1.493289073301405E-05
-4.532500000000E+01 -3.239988091016404E-03 -1.494455231164720E-05
-4.530000000000E+01 -3.241498178087732E-03 -1.495622525465643E-05
-4.527500000000E+01 -3.243006415290118E-03 -1.496790961436580E-05
-4.525000000000E+01 -3.244512848226270E-03 -1.497960544247426E-05
-4.522500000000E+01 -3.246017521570896E-03 -1.499131279007305E-05
-4.520000000000E+01 -3.247520479094901E-03 -1.500303170766286E-05
-4.517500000000E+01 -3.249021763688689E-03 -1.501476224516994E-05
-4.515000000000E+01 -3.250521417384762E-03 -1.502650445196225E-05
-4.512500000000E+01 -3.252019481379773E-03 -1.503825837686490E-05
-4.510000000000E+01 -3.253515996055644E-03 -1.505002406817497E-05
-4.507500000000E+01 -3.255011001000331E-03 -1.506180157367623E-05
-4.505000000000E+01 -3.256504535027790E-03 -1.507359094065314E-05
-4.502500000000E+01 -3.257996636197368E-03 -1.508539221590442E-05
-4.500000000000E+01 -3.259487341832605E-03 -1.509720544575647E-05
-4.497500000000E+01 -3.260976688539616E-03 -1.510903067607613E-05
-4.495000000000E+01 -3.262464712224699E-03 -1.512086795228328E-05
-4.492500000000E+01 -3.263951448111632E-03 -1.513271731936300E-05
-4.490000000000E+01 -3.265436930758327E-03 -1.514457882187699E-05
-4.487500000000E+01 -3.266921194073109E-03 -1.515645250397548E-05
-4.485000000000E+01 -3.268404271330457E-03 -1.516833840940823E-05
-4.482500000000E+01 -3.269886195186166E-03 -1.518023658153499E-05
-4.480000000000E+01 -3.271366997692557E-03 -1.519214706333633E-05
-4.477500000000E+01 -3.272846710312436E-03 -1.520406989742381E-05
-4.475000000000E+01 -3.274325363933549E-03 -1.521600512604959E-05
-4.472500000000E+01 -3.275802988881916E-03 -1.522795279111646E-05
-4.470000000000E+01 -3.277279614935253E-03 -1.523991293418688E-05
-4.467500000000E+01 -3.278755271335786E-03 -1.525188559649217E-05
-4.465000000000E+01 -3.280229986802738E-03 -1.526387081894140E-05
-4.462500000000E+01 -3.281703789544572E-03 -1.527586864213006E-05
-4.460000000000E+01 -3.283176707270729E-03 -1.528787910634806E-05
-4.457500000000E+01 -3.284648767203244E-03 -1.529990225158843E-05
-4.455000000000E+01 -3.286119996087813E-03 -1.531193811755463E-05
-4.452500000000E+01 -3.287590420204792E-03 -1.532398674366889E-05
-4.450000000000E+01 -3.289060065379730E-03 -1.533604816907924E-05
-4.447500000000E+01 -3.290528956993707E-03 -1.534812243266678E-05
-4.445000000000E+01 -3.291997119993306E-03 -1.536020957305322E-05
-4.442500000000E+01 -3.293464578900412E-03 -1.537230962860748E-05
-4.440000000000E+01 -3.294931357821749E-03 -1.538442263745226E-05
-4.437500000000E+01 -3.296397480458066E-03 -1.539654863747105E-05
-4.435000000000E+01 -3.297862970113154E-03 -1.540868766631426E-05
-4.432500000000E+01 -3.299327849702647E-03 -1.542083976140532E-05
-4.430000000000E+01 -3.300792141762474E-03 -1.543300495994698E-05
-4.427500000000E+01 -3.302255868457277E-03 -1.544518329892715E-05
-4.425000000000E+01 -3.303719051588497E-03 -1.545737481512470E-05
-4.422500000000E+01 -3.305181712602142E-03 -1.546957954511477E-05
-4.420000000000E+01 -3.306643872596644E-03 -1.548179752527459E-05
-4.417500000000E+01 -3.308105552330218E-03 -1.549402879178892E-05
-4.415000000000E+01 -3.309566772228202E-03 -1.550627338065462E-05
-4.412500000000E+01 -3.311027552390219E-03 -1.551853132768638E-05
-4.410000000000E+01 -3.312487912597003E-03 -1.553080266852118E-05
-4.407500000000E+01 -3.313947872317243E-03 -1.554308743862372E-05
-4.405000000000E+01 -3.315407450714181E-03 -1.555538567329023E-05
-4.402500000000E+01 -3.316866666651933E-03 -1.556769740765390E-05
-4.400000000000E+01 -3.318325538701855E-03 -1.558002267668894E-05
-4.397500000000E+01 -3.319784085148639E-03 -1.559236151521506E-05
-4.395000000000E+01 -3.321242323996144E-03 -1.560471395790147E-05
-4.392500000000E+01 -3.322700272973431E-03 -1.561708003927160E-05
-4.390000000000E+01 -3.324157949540254E-03 -1.562945979370659E-05
-4.387500000000E+01 -3.325615370892598E-03 -1.564185325544949E-05
-4.385000000000E+01 -3.327072553968185E-03 -1.565426045860918E-05
-4.382500000000E+01 -3.328529515451658E-03 -1.566668143716420E-05
-4.380000000000E+01 -3.329986271779715E-03 -1.567911622496618E-05
-4.377500000000E+01 -3.331442839146174E-03 -1.569156485574377E-05
-4.375000000000E+01 -3.332899233506781E-03 -1.570402736310584E-05
-4.372500000000E+01 -3.334355470584140E-03 -1.571650378054504E-05
-4.370000000000E+01 -3.335811565872199E-03 -1.572899414144156E-05
-4.367500000000E+01 -3.337267534640935E-03 -1.574149847906564E-05
-4.365000000000E+01 -3.338723391940712E-03 -1.575401682658141E-05
-4.362500000000E+01 -3.340179152606735E-03 -1.576654921704979E-05
-4.360000000000E+01 -3.341634831263163E-03 -1.577909568343157E-05
-4.357500000000E+01 -3.343090442327369E-03 -1.579165625859039E-05
-4.355000000000E+01 -3.344546000013896E-03 -1.580423097529587E-05
-4.352500000000E+01 -3.346001518338470E-03 -1.581681986622620E-05
-4.350000000000E+01 -3.347457011121798E-03 -1.582942296397099E-05
-4.347500000000E+01 -3.348912491993455E-03 -1.584204030103421E-05
-4.345000000000E+01 -3.350367974395462E-03 -1.585467190983668E-05
-4.342500000000E+01 -3.351823471585956E-03 -1.586731782271877E-05
-4.340000000000E+01 -3.353278996642629E-03 -1.587997807194292E-05
-4.337500000000E+01 -3.354734562466348E-03 -1.589265268969653E-05
-4.335000000000E+01 -3.356190181784264E-03 -1.590534170809351E-05
-4.332500000000E+01 -3.357645867153376E-03 -1.591804515917776E-05
-4.330000000000E+01 -3.359101630963545E-03 -1.593076307492465E-05
-4.327500000000E+01 -3.360557485440684E-03 -1.594349548724401E-05
-4.325000000000E+01 -3.362013442649955E-03 -1.595624242798189E-05
-4.322500000000E+01 -3.363469514498590E-03 -1.596900392892322E-05
-4.320000000000E+01 -3.364925712739001E-03 -1.598178002179340E-05
-4.317500000000E+01 -3.366382048971540E-03 -1.599457073826086E-05
-4.315000000000E+01 -3.367838534647369E-03 -1.600737610993917E-05
-4.312500000000E+01 -3.369295181071208E-03 -1.602019616838867E-05
-4.310000000000E+01 -3.370751999404018E-03 -1.603303094511891E-05
-4.307500000000E+01 -3.372209000665650E-03 -1.604588047159028E-05
-4.305000000000E+01 -3.373666195737418E-03 -1.605874477921631E-05
-4.302500000000E+01 -3.375123595364614E-03 -1.607162389936504E-05
-4.300000000000E+01 -3.376581210158971E-03 -1.608451786336112E-05
-4.297500000000E+01 -3.378039050601177E-03 -1.609742670248769E-05
-4.295000000000E+01 -3.379497127043021E-03 -1.611035044798812E-05
-4.292500000000E+01 -3.380955449710018E-03 -1.612328913106754E-05
-4.290000000000E+01 -3.382414028703356E-03 -1.613624278289493E-05
-4.287500000000E+01 -3.383872874002360E-03 -1.614921143460408E-05
-4.285000000000E+01 -3.385331995466518E-03 -1.616219511729617E-05
-4.282500000000E+01 -3.386791402837736E-03 -1.617519386204064E-05
-4.280000000000E+01 -3.388251105742268E-03 -1.618820769987717E-05
-4.277500000000E+01 -3.389711113692934E-03 -1.620123666181684E-05
-4.275000000000E+01 -3.391171436090893E-03 -1.621428077884403E-05
-4.272500000000E+01 -3.392632082227866E-03 -1.622734008191772E-05
-4.270000000000E+01 -3.394093061287854E-03 -1.624041460197287E-05
-4.267500000000E+01 -3.395554382349108E-03 -1.625350436992220E-05
-4.265000000000E+01 -3.397016054385932E-03 -1.626660941665706E-05
-4.262500000000E+01 -3.398478086270494E-03 -1.627972977304923E-05
-4.260000000000E+01 -3.399940486774598E-03 -1.629286546995216E-05
-4.257500000000E+01 -3.401403264571469E-03 -1.630601653820220E-05
