#Spectra: 1
Emin______Emax      -5.000000000000000E+01  5.000000000000000E+01
EminPole__EmaxPole  -2.736866876778367E+01 -7.362736318476436E+00
dE________Gamma      2.500000000000000E-02  1.000000000000000E-01
Energy               Re[0]                  Im[0]                
-5.000000000000E+01 -5.522913334278709E-03 -1.166674154742489E-04
-4.997500000000E+01 -5.856369182593448E-03 -1.175727658139422E-04
-4.995000000000E+01 -6.180750448816344E-03 -1.184612066992070E-04
-4.992500000000E+01 -6.490914152118834E-03 -1.193223208169024E-04
-4.990000000000E+01 -6.783121047925107E-03 -1.201485192565678E-04
-4.987500000000E+01 -7.055124727121512E-03 -1.209352247195664E-04
-4.985000000000E+01 -7.306019320765538E-03 -1.216805666356066E-04
-4.982500000000E+01 -7.535953510866257E-03 -1.223848055259055E-04
-4.980000000000E+01 -7.745811623130679E-03 -1.230496901746534E-04
-4.977500000000E+01 -7.936927610571324E-03 -1.236778806545527E-04
-4.975000000000E+01 -8.110861051469836E-03 -1.242724961860072E-04
-4.972500000000E+01 -8.269238720566365E-03 -1.248367951600876E-04
-4.970000000000E+01 -8.413652268005145E-03 -1.253739683177596E-04
-4.967500000000E+01 -8.545598439584185E-03 -1.258870177625807E-04
-4.965000000000E+01 -8.666448952988789E-03 -1.263786958330119E-04
-4.962500000000E+01 -8.777439681743963E-03 -1.268514829651584E-04
-4.960000000000E+01 -8.879671599961536E-03 -1.273075893212285E-04
-4.957500000000E+01 -8.974118334207947E-03 -1.277489697840478E-04
-4.955000000000E+01 -9.061636980351687E-03 -1.281773455712991E-04
-4.952500000000E+01 -9.142980118687772E-03 -1.285942282960435E-04
-4.950000000000E+01 -9.218807814973685E-03 -1.290009440237750E-04
-4.947500000000E+01 -9.289698945475751E-03 -1.293986559871562E-04
-4.945000000000E+01 -9.356161526625422E-03 -1.297883853109982E-04
-4.942500000000E+01 -9.418641935268592E-03 -1.301710295147685E-04
-4.940000000000E+01 -9.477533023052738E-03 -1.305473787974972E-04
-4.937500000000E+01 -9.533181191264440E-03 -1.309181302368908E-04
-4.935000000000E+01 -9.585892521904628E-03 -1.312839000942531E-04
-4.932500000000E+01 -9.635938070680269E-03 -1.316452344369774E-04
-4.930000000000E+01 -9.683558426477480E-03 -1.320026182883885E-04
-4.927500000000E+01 -9.728967634993939E-03 -1.323564835009595E-04
-4.925000000000E+01 -9.772356574714293E-03 -1.327072155299508E-04
-4.922500000000E+01 -9.813895863116063E-03 -1.330551592638853E-04
-4.920000000000E+01 -9.853738360918034E-03 -1.334006240480185E-04
-4.917500000000E+01 -9.892021332838698E-03 -1.337438880182519E-04
-4.915000000000E+01 -9.928868314953720E-03 -1.340852018460803E-04
-4.912500000000E+01 -9.964390731375328E-03 -1.344247919803608E-04
-4.910000000000E+01 -9.998689296599627E-03 -1.347628634589376E-04
-4.907500000000E+01 -1.003185523439628E-02 -1.350996023520740E-04
-4.905000000000E+01 -1.006397133945070E-02 -1.354351778903803E-04
-4.902500000000E+01 -1.009511290400557E-02 -1.357697443218590E-04
-4.900000000000E+01 -1.012534852840373E-02 -1.361034425360505E-04
-4.897500000000E+01 -1.015474083159747E-02 -1.364364014875226E-04
-4.895000000000E+01 -1.018334707530127E-02 -1.367687394461643E-04
-4.892500000000E+01 -1.021121971344401E-02 -1.371005650976733E-04
-4.890000000000E+01 -1.023840687687412E-02 -1.374319785142172E-04
-4.887500000000E+01 -1.026495280182868E-02 -1.377630720123613E-04
-4.885000000000E+01 -1.029089820945904E-02 -1.380939309128754E-04
-4.882500000000E+01 -1.031628064267206E-02 -1.384246342149976E-04
-4.880000000000E+01 -1.034113476567039E-02 -1.387552551959354E-04
-4.877500000000E+01 -1.036549263083077E-02 -1.390858619449485E-04
-4.875000000000E+01 -1.038938391692565E-02 -1.394165178399841E-04
-4.872500000000E+01 -1.041283614215151E-02 -1.397472819738756E-04
-4.870000000000E+01 -1.043587485496899E-02 -1.400782095360985E-04
-4.867500000000E+01 -1.045852380536108E-02 -1.404093521552930E-04
-4.865000000000E+01 -1.048080509878023E-02 -1.407407582071497E-04
-4.862500000000E+01 -1.050273933476252E-02 -1.410724730915949E-04
-4.860000000000E+01 -1.052434573193670E-02 -1.414045394827298E-04
-4.857500000000E+01 -1.054564224094127E-02 -1.417369975545893E-04
-4.855000000000E+01 -1.056664564657486E-02 -1.420698851853455E-04
-4.852500000000E+01 -1.058737166034487E-02 -1.424032381423044E-04
-4.850000000000E+01 -1.060783500443844E-02 -1.427370902497409E-04
-4.847500000000E+01 -1.062804948801909E-02 -1.430714735413948E-04
-4.845000000000E+01 -1.064802807664643E-02 -1.434064183992020E-04
-4.842500000000E+01 -1.066778295552342E-02 -1.437419536797000E-04
-4.840000000000E+01 -1.068732558719628E-02 -1.440781068293250E-04
-4.837500000000E+01 -1.070666676426015E-02 -1.444149039897457E-04
-4.835000000000E+01 -1.072581665756467E-02 -1.447523700941961E-04
-4.832500000000E+01 -1.074478486035519E-02 -1.450905289556835E-04
-4.830000000000E+01 -1.076358042874218E-02 -1.454294033478700E-04
-4.827500000000E+01 -1.078221191884635E-02 -1.457690150793066E-04
-4.825000000000E+01 -1.080068742093157E-02 -1.461093850616637E-04
-4.822500000000E+01 -1.081901459080420E-02 -1.464505333724876E-04
-4.820000000000E+01 -1.083720067872939E-02 -1.467924793130135E-04
-4.817500000000E+01 -1.085525255608781E-02 -1.471352414614667E-04
-4.815000000000E+01 -1.087317673997593E-02 -1.474788377222496E-04
-4.812500000000E+01 -1.089097941592994E-02 -1.478232853714056E-04
-4.810000000000E+01 -1.090866645893886E-02 -1.481686010986491E-04
-4.807500000000E+01 -1.092624345289115E-02 -1.485148010462839E-04
-4.805000000000E+01 -1.094371570859303E-02 -1.488619008452732E-04
-4.802500000000E+01 -1.096108828047319E-02 -1.492099156486922E-04
-4.800000000000E+01 -1.097836598208941E-02 -1.495588601627734E-04
-4.797500000000E+01 -1.099555340053005E-02 -1.499087486757933E-04
-4.795000000000E+01 -1.101265490980480E-02 -1.502595950848963E-04
-4.792500000000E+01 -1.102967468330411E-02 -1.506114129210936E-04
-4.790000000000E+01 -1.104661670540178E-02 -1.509642153725553E-04
-4.787500000000E+01 -1.106348478226827E-02 -1.513180153063154E-04
-4.785000000000E+01 -1.108028255195734E-02 -1.516728252885460E-04
-4.782500000000E+01 -1.109701349382038E-02 -1.520286576034902E-04
-4.780000000000E+01 -1.111368093730112E-02 -1.523855242711540E-04
-4.777500000000E+01 -1.113028807015760E-02 -1.527434370638757E-04
-4.775000000000E+01 -1.114683794615306E-02 -1.531024075218204E-04
-4.772500000000E+01 -1.116333349225635E-02 -1.534624469675198E-04
-4.770000000000E+01 -1.117977751538780E-02 -1.538235665194918E-04
-4.767500000000E+01 -1.119617270874221E-02 -1.541857771050313E-04
-4.765000000000E+01 -1.121252165772133E-02 -1.545490894722220E-04
-4.762500000000E+01 -1.122882684550158E-02 -1.549135142012263E-04
-4.760000000000E+01 -1.124509065826491E-02 -1.552790617149026E-04
-4.757500000000E+01 -1.126131539011433E-02 -1.556457422888022E-04
-4.755000000000E+01 -1.127750324769719E-02 -1.560135660605852E-04
-4.752500000000E+01 -1.129365635455563E-02 -1.563825430389005E-04
-4.750000000000E+01 -1.130977675522295E-02 -1.567526831117475E-04
-4.747500000000E+01 -1.132586641908355E-02 -1.571239960543945E-04
-4.745000000000E+01 -1.134192724401045E-02 -1.574964915368329E-04
-4.742500000000E+01 -1.135796105979724E-02 -1.578701791308410E-04
-4.740000000000E+01 -1.137396963139667E-02 -1.582450683166598E-04
-4.737500000000E+01 -1.138995466197813E-02 -1.586211684893121E-04
-4.735000000000E+01 -1.140591779581731E-02 -1.589984889645880E-04
-4.732500000000E+01 -1.142186062102607E-02 -1.593770389847198E-04
-4.730000000000E+01 -1.143778467213578E-02 -1.597568277237696E-04
-4.727500000000E+01 -1.145369143254035E-02 -1.601378642927294E-04
-4.725000000000E+01 -1.146958233680982E-02 -1.605201577443813E-04
-4.722500000000E+01 -1.148545877288138E-02 -1.609037170779058E-04
-4.720000000000E+01 -1.150132208413529E-02 -1.612885512432707E-04
-4.717500000000E+01 -1.151717357136354E-02 -1.616746691454055E-04
-4.715000000000E+01 -1.153301449463646E-02 -1.620620796481757E-04
-4.712500000000E+01 -1.154884607507433E-02 -1.624507915781784E-04
-4.710000000000E+01 -1.156466949652926E-02 -1.628408137283524E-04
-4.707500000000E+01 -1.158048590718227E-02 -1.632321548614257E-04
-4.705000000000E+01 -1.159629642106135E-02 -1.636248237132147E-04
-4.702500000000E+01 -1.161210211948364E-02 -1.640188289957672E-04
-4.700000000000E+01 -1.162790405242817E-02 -1.644141794003761E-04
-4.697500000000E+01 -1.164370323984043E-02 -1.648108836004577E-04
-4.695000000000E+01 -1.165950067287535E-02 -1.652089502543130E-04
-4.692500000000E+01 -1.167529731507977E-02 -1.656083880077694E-04
-4.690000000000E+01 -1.169109410351962E-02 -1.660092054967158E-04
-4.687500000000E+01 -1.170689194985326E-02 -1.664114113495363E-04
-4.685000000000E+01 -1.172269174135536E-02 -1.668150141894442E-04
-4.682500000000E+01 -1.173849434189313E-02 -1.672200226367330E-04
-4.680000000000E+01 -1.175430059285711E-02 -1.676264453109241E-04
-4.677500000000E+01 -1.177011131405031E-02 -1.680342908328582E-04
-4.675000000000E+01 -1.178592730453670E-02 -1.684435678266846E-04
-4.672500000000E+01 -1.180174934345134E-02 -1.688542849217948E-04
-4.670000000000E+01 -1.181757819077489E-02 -1.692664507546827E-04
-4.667500000000E+01 -1.183341458807319E-02 -1.696800739707357E-04
-4.665000000000E+01 -1.184925925920533E-02 -1.700951632259740E-04
-4.662500000000E+01 -1.186511291099981E-02 -1.705117271887196E-04
-4.660000000000E+01 -1.188097623390151E-02 -1.709297745412217E-04
-4.657500000000E+01 -1.189684990259234E-02 -1.713493139812232E-04
-4.655000000000E+01 -1.191273457658332E-02 -1.717703542234801E-04
-4.652500000000E+01 -1.192863090078299E-02 -1.721929040012389E-04
-4.650000000000E+01 -1.194453950604166E-02 -1.726169720676578E-04
-4.647500000000E+01 -1.196046100967261E-02 -1.730425671972014E-04
-4.645000000000E+01 -1.197639601595221E-02 -1.734696981869859E-04
-4.642500000000E+01 -1.199234511659909E-02 -1.738983738580910E-04
-4.640000000000E+01 -1.200830889123389E-02 -1.743286030568314E-04
-4.637500000000E+01 -1.202428790782061E-02 -1.747603946560061E-04
-4.635000000000E+01 -1.204028272308980E-02 -1.751937575561022E-04
-4.632500000000E+01 -1.205629388294507E-02 -1.756287006864757E-04
-4.630000000000E+01 -1.207232192285355E-02 -1.760652330065096E-04
-4.627500000000E+01 -1.208836736822109E-02 -1.765033635067312E-04
-4.625000000000E+01 -1.210443073475209E-02 -1.769431012099173E-04
-4.622500000000E+01 -1.212051252879651E-02 -1.773844551721669E-04
-4.620000000000E+01 -1.213661324768240E-02 -1.778274344839572E-04
-4.617500000000E+01 -1.215273338003671E-02 -1.782720482711693E-04
-4.615000000000E+01 -1.216887340609279E-02 -1.787183056961057E-04
-4.612500000000E+01 -1.218503379798749E-02 -1.791662159584772E-04
-4.610000000000E+01 -1.220121502004622E-02 -1.796157882963810E-04
-4.607500000000E+01 -1.221741752905796E-02 -1.800670319872528E-04
-4.605000000000E+01 -1.223364177453979E-02 -1.805199563488091E-04
-4.602500000000E+01 -1.224988819899206E-02 -1.809745707399739E-04
-4.600000000000E+01 -1.226615723814351E-02 -1.814308845617870E-04
-4.597500000000E+01 -1.228244932118890E-02 -1.818889072583000E-04
-4.595000000000E+01 -1.229876487101675E-02 -1.823486483174671E-04
-4.592500000000E+01 -1.231510430442965E-02 -1.828101172720058E-04
-4.590000000000E+01 -1.233146803235671E-02 -1.832733237002727E-04
-4.587500000000E+01 -1.234785646005851E-02 -1.837382772270986E-04
-4.585000000000E+01 -1.236426998732471E-02 -1.842049875246421E-04
-4.582500000000E+01 -1.238070900866535E-02 -1.846734643132111E-04
-4.580000000000E+01 -1.239717391349489E-02 -1.851437173620911E-04
-4.577500000000E+01 -1.241366508631047E-02 -1.856157564903592E-04
-4.575000000000E+01 -1.243018290686390E-02 -1.860895915676862E-04
-4.572500000000E+01 -1.244672775032830E-02 -1.865652325151434E-04
-4.570000000000E+01 -1.246329998745812E-02 -1.870426893059902E-04
-4.567500000000E+01 -1.247989998474523E-02 -1.875219719664614E-04
-4.565000000000E+01 -1.249652810456888E-02 -1.880030905765556E-04
-4.562500000000E+01 -1.251318470534124E-02 -1.884860552708045E-04
-4.560000000000E+01 -1.252987014164803E-02 -1.889708762390463E-04
-4.557500000000E+01 -1.254658476438449E-02 -1.894575637271966E-04
-4.555000000000E+01 -1.256332892088765E-02 -1.899461280380108E-04
-4.552500000000E+01 -1.258010295506371E-02 -1.904365795318418E-04
-4.550000000000E+01 -1.259690720751154E-02 -1.909289286274002E-04
-4.547500000000E+01 -1.261374201564268E-02 -1.914231858025090E-04
-4.545000000000E+01 -1.263060771379751E-02 -1.919193615948552E-04
-4.542500000000E+01 -1.264750463335732E-02 -1.924174666027398E-04
-4.540000000000E+01 -1.266443310285409E-02 -1.929175114858229E-04
-4.537500000000E+01 -1.268139344807559E-02 -1.934195069658785E-04
-4.535000000000E+01 -1.269838599216850E-02 -1.939234638275338E-04
-4.532500000000E+01 -1.271541105573773E-02 -1.944293929190170E-04
-4.530000000000E+01 -1.273246895694320E-02 -1.949373051529001E-04
-4.527500000000E+01 -1.274956001159358E-02 -1.954472115068452E-04
-4.525000000000E+01 -1.276668453323747E-02 -1.959591230243471E-04
-4.522500000000E+01 -1.278384283325188E-02 -1.964730508154812E-04
-4.520000000000E+01 -1.280103522092809E-02 -1.969890060576442E-04
-4.517500000000E+01 -1.281826200355530E-02 -1.975069999963017E-04
-4.515000000000E+01 -1.283552348650177E-02 -1.980270439457329E-04
-4.512500000000E+01 -1.285281997329396E-02 -1.985491492897861E-04
-4.510000000000E+01 -1.287015176569282E-02 -1.990733274826184E-04
-4.507500000000E+01 -1.288751916376945E-02 -1.995995900494523E-04
-4.505000000000E+01 -1.290492246597624E-02 -2.001279485873304E-04
-4.502500000000E+01 -1.292236196921905E-02 -2.006584147658609E-04
-4.500000000000E+01 -1.293983796892558E-02 -2.011910003279884E-04
-4.497500000000E+01 -1.295735075911217E-02 -2.017257170907467E-04
-4.495000000000E+01 -1.297490063244928E-02 -2.022625769460179E-04
-4.492500000000E+01 -1.299248788032542E-02 -2.028015918613018E-04
-4.490000000000E+01 -1.301011279290850E-02 -2.033427738804880E-04
-4.487500000000E+01 -1.302777565920701E-02 -2.038861351246190E-04
-4.485000000000E+01 -1.304547676712846E-02 -2.044316877926727E-04
-4.482500000000E+01 -1.306321640353736E-02 -2.049794441623373E-04
-4.480000000000E+01 -1.308099485431057E-02 -2.055294165907943E-04
-4.477500000000E+01 -1.309881240439283E-02 -2.060816175155050E-04
-4.475000000000E+01 -1.311666933784976E-02 -2.066360594550004E-04
-4.472500000000E+01 -1.313456593792012E-02 -2.071927550096771E-04
-4.470000000000E+01 -1.315250248706678E-02 -2.077517168625952E-04
-4.467500000000E+01 -1.317047926702655E-02 -2.083129577802813E-04
-4.465000000000E+01 -1.318849655885875E-02 -2.088764906135412E-04
-4.462500000000E+01 -1.320655464299289E-02 -2.094423282982641E-04
-4.460000000000E+01 -1.322465379927503E-02 -2.100104838562510E-04
-4.457500000000E+01 -1.324279430701348E-02 -2.105809703960356E-04
-4.455000000000E+01 -1.326097644502295E-02 -2.111538011137037E-04
-4.452500000000E+01 -1.327920049166853E-02 -2.117289892937437E-04
-4.450000000000E+01 -1.329746672490785E-02 -2.123065483098705E-04
-4.447500000000E+01 -1.331577542233346E-02 -2.128864916258853E-04
-4.445000000000E+01 -1.333412686121302E-02 -2.134688327965137E-04
-4.442500000000E+01 -1.335252131852988E-02 -2.140535854682770E-04
-4.440000000000E+01 -1.337095907102208E-02 -2.146407633803478E-04
-4.437500000000E+01 -1.338944039522104E-02 -2.152303803654183E-04
-4.435000000000E+01 -1.340796556748909E-02 -2.158224503505859E-04
-4.432500000000E+01 -1.342653486405689E-02 -2.164169873582293E-04
-4.430000000000E+01 -1.344514856105927E-02 -2.170140055068992E-04
-4.427500000000E+01 -1.346380693457128E-02 -2.176135190122226E-04
-4.425000000000E+01 -1.348251026064329E-02 -2.182155421877975E-04
-4.422500000000E+01 -1.350125881533479E-02 -2.188200894461115E-04
-4.420000000000E+01 -1.352005287474898E-02 -2.194271752994535E-04
-4.417500000000E+01 -1.353889271506554E-02 -2.200368143608526E-04
-4.415000000000E+01 -1.355777861257347E-02 -2.206490213449937E-04
-4.412500000000E+01 -1.357671084370289E-02 -2.212638110691773E-04
-4.410000000000E+01 -1.359568968505741E-02 -2.218811984542567E-04
-4.407500000000E+01 -1.361471541344399E-02 -2.225011985256027E-04
-4.405000000000E+01 -1.363378830590492E-02 -2.231238264140612E-04
-4.402500000000E+01 -1.365290863974700E-02 -2.237490973569407E-04
-4.400000000000E+01 -1.367207669257151E-02 -2.243770266989804E-04
-4.397500000000E+01 -1.369129274230356E-02 -2.250076298933513E-04
-4.395000000000E+01 -1.371055706722106E-02 -2.256409225026502E-04
-4.392500000000E+01 -1.372986994598272E-02 -2.262769201999134E-04
-4.390000000000E+01 -1.374923165765617E-02 -2.269156387696317E-04
-4.387500000000E+01 -1.376864248174607E-02 -2.275570941087763E-04
-4.385000000000E+01 -1.378810269822100E-02 -2.282013022278400E-04
-4.382500000000E+01 -1.380761258754051E-02 -2.288482792518740E-04
-4.380000000000E+01 -1.382717243068169E-02 -2.294980414215539E-04
-4.377500000000E+01 -1.384678250916564E-02 -2.301506050942407E-04
-4.375000000000E+01 -1.386644310508302E-02 -2.308059867450501E-04
-4.372500000000E+01 -1.388615450112033E-02 -2.314642029679455E-04
-4.370000000000E+01 -1.390591698058494E-02 -2.321252704768329E-04
-4.367500000000E+01 -1.392573082743006E-02 -2.327892061066584E-04
-4.365000000000E+01 -1.394559632628007E-02 -2.334560268145346E-04
-4.362500000000E+01 -1.396551376245460E-02 -2.341257496808583E-04
-4.360000000000E+01 -1.398548342199341E-02 -2.347983919104569E-04
-4.357500000000E+01 -1.400550559167994E-02 -2.354739708337310E-04
-4.355000000000E+01 -1.402558055906556E-02 -2.361525039078138E-04
-4.352500000000E+01 -1.404570861249334E-02 -2.368340087177461E-04
-4.350000000000E+01 -1.406589004112109E-02 -2.375185029776547E-04
-4.347500000000E+01 -1.408612513494513E-02 -2.382060045319479E-04
-4.345000000000E+01 -1.410641418482313E-02 -2.388965313565208E-04
-4.342500000000E+01 -1.412675748249689E-02 -2.395901015599766E-04
-4.340000000000E+01 -1.414715532061532E-02 -2.402867333848490E-04
-4.337500000000E+01 -1.416760799275710E-02 -2.409864452088509E-04
-4.335000000000E+01 -1.418811579345282E-02 -2.416892555461234E-04
-4.332500000000E+01 -1.420867901820726E-02 -2.423951830485055E-04
-4.330000000000E+01 -1.422929796352184E-02 -2.431042465068180E-04
-4.327500000000E+01 -1.424997292691615E-02 -2.438164648521446E-04
-4.325000000000E+01 -1.427070420695062E-02 -2.445318571571492E-04
-4.322500000000E+01 -1.429149210324746E-02 -2.452504426373925E-04
-4.320000000000E+01 -1.431233691651240E-02 -2.459722406526520E-04
-4.317500000000E+01 -1.433323894855700E-02 -2.466972707082925E-04
-4.315000000000E+01 -1.435419850231920E-02 -2.474255524566022E-04
-4.312500000000E+01 -1.437521588188530E-02 -2.481571056981752E-04
-4.310000000000E+01 -1.439629139251074E-02 -2.488919503833087E-04
-4.307500000000E+01 -1.441742534064189E-02 -2.496301066133902E-04
-4.305000000000E+01 -1.443861803393658E-02 -2.503715946423233E-04
-4.302500000000E+01 -1.445986978128577E-02 -2.511164348779641E-04
-4.300000000000E+01 -1.448118089283386E-02 -2.518646478835523E-04
-4.297500000000E+01 -1.450255168000024E-02 -2.526162543791913E-04
-4.295000000000E+01 -1.452398245549990E-02 -2.533712752433078E-04
-4.292500000000E+01 -1.454547353336430E-02 -2.541297315141633E-04
-4.290000000000E+01 -1.456702522896230E-02 -2.548916443913480E-04
-4.287500000000E+01 -1.458863785902087E-02 -2.556570352373119E-04
-4.285000000000E+01 -1.461031174164582E-02 -2.564259255789056E-04
-4.282500000000E+01 -1.463204719634263E-02 -2.571983371089355E-04
-4.280000000000E+01 -1.465384454403705E-02 -2.579742916877385E-04
-4.277500000000E+01 -1.467570410709594E-02 -2.587538113447765E-04
-4.275000000000E+01 -1.469762620934788E-02 -2.595369182802308E-04
-4.272500000000E+01 -1.471961117610386E-02 -2.603236348666503E-04
-4.270000000000E+01 -1.474165933417812E-02 -2.611139836505733E-04
-4.267500000000E+01 -1.476377101190853E-02 -2.619079873541928E-04
-4.265000000000E+01 -1.478594653917779E-02 -2.627056688770440E-04
-4.262500000000E+01 -1.480818624743357E-02 -2.635070512976916E-04
-4.260000000000E+01 -1.483049046971002E-02 -2.643121578754473E-04
-4.257500000000E+01 -1.485285954064757E-02 -2.651210120520995E-04
