#Spectra: 1
Emin______Emax      -5.000000000000000E+01  5.000000000000000E+01
EminPole__EmaxPole  -4.423169185911206E+00  1.817140894532716E+01
dE________Gamma      2.500000000000000E-02  1.000000000000000E-01
Energy               Re[0]                  Im[0]                
-5.000000000000E+01 -2.298891647945337E-03 -2.475167473404921E-05
-4.997500000000E+01 -2.438041604698289E-03 -2.491829256559486E-05
-4.995000000000E+01 -2.573298675620458E-03 -2.508104727981465E-05
-4.992500000000E+01 -2.702499722660323E-03 -2.523772740947191E-05
-4.990000000000E+01 -2.824073587940724E-03 -2.538672501110640E-05
-4.987500000000E+01 -2.937078305344867E-03 -2.552707399169022E-05
-4.985000000000E+01 -3.041136679667888E-03 -2.565838464149742E-05
-4.982500000000E+01 -3.136315619904979E-03 -2.578072067954340E-05
-4.980000000000E+01 -3.222991675736594E-03 -2.589446214167759E-05
-4.977500000000E+01 -3.301730485992071E-03 -2.600018240745038E-05
-4.975000000000E+01 -3.373192391583146E-03 -2.609855188864319E-05
-4.972500000000E+01 -3.438065698021341E-03 -2.619026991041221E-05
-4.970000000000E+01 -3.497023589366188E-03 -2.627602071583774E-05
-4.967500000000E+01 -3.550698971147659E-03 -2.635644776122272E-05
-4.965000000000E+01 -3.599671809359146E-03 -2.643214076219985E-05
-4.962500000000E+01 -3.644464603273406E-03 -2.650363104144219E-05
-4.960000000000E+01 -3.685542811203583E-03 -2.657139193317445E-05
-4.957500000000E+01 -3.723318057336159E-03 -2.663584202863864E-05
-4.955000000000E+01 -3.758152711394581E-03 -2.669734982554000E-05
-4.952500000000E+01 -3.790364970479524E-03 -2.675623889286500E-05
-4.950000000000E+01 -3.820233932493504E-03 -2.681279302979140E-05
-4.947500000000E+01 -3.848004382525518E-03 -2.686726113408717E-05
-4.945000000000E+01 -3.873891157884485E-03 -2.691986164264936E-05
-4.942500000000E+01 -3.898083043991784E-03 -2.697078649514870E-05
-4.940000000000E+01 -3.920746202854954E-03 -2.702020462228845E-05
-4.937500000000E+01 -3.942027162266275E-03 -2.706826498717750E-05
-4.935000000000E+01 -3.962055406261313E-03 -2.711509922099152E-05
-4.932500000000E+01 -3.980945611520530E-03 -2.716082389835067E-05
-4.930000000000E+01 -3.998799573901582E-03 -2.720554249736384E-05
-4.927500000000E+01 -4.015707866372878E-03 -2.724934708632983E-05
-4.925000000000E+01 -4.031751265601037E-03 -2.729231977500683E-05
-4.922500000000E+01 -4.047001980090944E-03 -2.733453396393042E-05
-4.920000000000E+01 -4.061524708522214E-03 -2.737605542093493E-05
-4.917500000000E+01 -4.075377552976430E-03 -2.741694321001171E-05
-4.915000000000E+01 -4.088612808211362E-03 -2.745725049403794E-05
-4.912500000000E+01 -4.101277645026860E-03 -2.749702522974124E-05
-4.910000000000E+01 -4.113414703074186E-03 -2.753631077052691E-05
-4.907500000000E+01 -4.125062606149732E-03 -2.757514639044001E-05
-4.905000000000E+01 -4.136256411043635E-03 -2.761356774052671E-05
-4.902500000000E+01 -4.147027999341427E-03 -2.765160724716543E-05
-4.900000000000E+01 -4.157406420163013E-03 -2.768929446048593E-05
-4.897500000000E+01 -4.167418190624997E-03 -2.772665635978814E-05
-4.895000000000E+01 -4.177087559805115E-03 -2.776371762183792E-05
-4.892500000000E+01 -4.186436741133337E-03 -2.780050085705066E-05
-4.890000000000E+01 -4.195486117413749E-03 -2.783702681784222E-05
-4.887500000000E+01 -4.204254422074704E-03 -2.787331458280564E-05
-4.885000000000E+01 -4.212758899727918E-03 -2.790938171984890E-05
-4.882500000000E+01 -4.221015448681172E-03 -2.794524443098238E-05
-4.880000000000E+01 -4.229038747680238E-03 -2.798091768107546E-05
-4.877500000000E+01 -4.236842368840417E-03 -2.801641531256869E-05
-4.875000000000E+01 -4.244438878459070E-03 -2.805175014787108E-05
-4.872500000000E+01 -4.251839927175469E-03 -2.808693408092576E-05
-4.870000000000E+01 -4.259056330745688E-03 -2.812197815923883E-05
-4.867500000000E+01 -4.266098142535948E-03 -2.815689265749081E-05
-4.865000000000E+01 -4.272974718693237E-03 -2.819168714370638E-05
-4.862500000000E+01 -4.279694776830252E-03 -2.822637053883381E-05
-4.860000000000E+01 -4.286266448954630E-03 -2.826095117047597E-05
-4.857500000000E+01 -4.292697329282515E-03 -2.829543682142387E-05
-4.855000000000E+01 -4.298994517496535E-03 -2.832983477356146E-05
-4.852500000000E+01 -4.305164657941236E-03 -2.836415184764477E-05
-4.850000000000E+01 -4.311213975188722E-03 -2.839839443939257E-05
-4.847500000000E+01 -4.317148306356369E-03 -2.843256855227871E-05
-4.845000000000E+01 -4.322973130514326E-03 -2.846667982736914E-05
-4.842500000000E+01 -4.328693595480241E-03 -2.850073357050478E-05
-4.840000000000E+01 -4.334314542266069E-03 -2.853473477710104E-05
-4.837500000000E+01 -4.339840527410888E-03 -2.856868815480017E-05
-4.835000000000E+01 -4.345275843408073E-03 -2.860259814418885E-05
-4.832500000000E+01 -4.350624537412270E-03 -2.863646893776991E-05
-4.830000000000E+01 -4.355890428391516E-03 -2.867030449735517E-05
-4.827500000000E+01 -4.361077122871534E-03 -2.870410857002924E-05
-4.825000000000E+01 -4.366188029404796E-03 -2.873788470281928E-05
-4.822500000000E+01 -4.371226371881463E-03 -2.877163625618936E-05
-4.820000000000E+01 -4.376195201789036E-03 -2.880536641646802E-05
-4.817500000000E+01 -4.381097409515029E-03 -2.883907820730346E-05
-4.815000000000E+01 -4.385935734777969E-03 -2.887277450023704E-05
-4.812500000000E+01 -4.390712776264161E-03 -2.890645802446805E-05
-4.810000000000E+01 -4.395431000539061E-03 -2.894013137588460E-05
-4.807500000000E+01 -4.400092750295779E-03 -2.897379702542042E-05
-4.805000000000E+01 -4.404700251997028E-03 -2.900745732679849E-05
-4.802500000000E+01 -4.409255622962150E-03 -2.904111452370982E-05
-4.800000000000E+01 -4.413760877944706E-03 -2.907477075647687E-05
-4.797500000000E+01 -4.418217935242924E-03 -2.910842806824230E-05
-4.795000000000E+01 -4.422628622381300E-03 -2.914208841072384E-05
-4.792500000000E+01 -4.426994681397151E-03 -2.917575364956833E-05
-4.790000000000E+01 -4.431317773764432E-03 -2.920942556933691E-05
-4.787500000000E+01 -4.435599484982778E-03 -2.924310587815302E-05
-4.785000000000E+01 -4.439841328858061E-03 -2.927679621203516E-05
-4.782500000000E+01 -4.444044751498595E-03 -2.931049813894342E-05
-4.780000000000E+01 -4.448211135048067E-03 -2.934421316255858E-05
-4.777500000000E+01 -4.452341801175622E-03 -2.937794272581430E-05
-4.775000000000E+01 -4.456438014340985E-03 -2.941168821420253E-05
-4.772500000000E+01 -4.460500984851247E-03 -2.944545095886751E-05
-4.770000000000E+01 -4.464531871725102E-03 -2.947923223950370E-05
-4.767500000000E+01 -4.468531785377466E-03 -2.951303328707346E-05
-4.765000000000E+01 -4.472501790138475E-03 -2.954685528635509E-05
-4.762500000000E+01 -4.476442906618124E-03 -2.958069937833634E-05
-4.760000000000E+01 -4.480356113927178E-03 -2.961456666246075E-05
-4.757500000000E+01 -4.484242351764933E-03 -2.964845819874038E-05
-4.755000000000E+01 -4.488102522382832E-03 -2.968237500974210E-05
-4.752500000000E+01 -4.491937492432042E-03 -2.971631808245603E-05
-4.750000000000E+01 -4.495748094703515E-03 -2.975028837005676E-05
-4.747500000000E+01 -4.499535129767289E-03 -2.978428679356045E-05
-4.745000000000E+01 -4.503299367517765E-03 -2.981831424338834E-05
-4.742500000000E+01 -4.507041548631702E-03 -2.985237158084098E-05
-4.740000000000E+01 -4.510762385943497E-03 -2.988645963948956E-05
-4.737500000000E+01 -4.514462565744568E-03 -2.992057922648922E-05
-4.735000000000E+01 -4.518142749010420E-03 -2.995473112382053E-05
-4.732500000000E+01 -4.521803572560812E-03 -2.998891608946249E-05
-4.730000000000E+01 -4.525445650156903E-03 -3.002313485850167E-05
-4.727500000000E+01 -4.529069573539310E-03 -3.005738814418229E-05
-4.725000000000E+01 -4.532675913410990E-03 -3.009167663889943E-05
-4.722500000000E+01 -4.536265220367851E-03 -3.012600101514058E-05
-4.720000000000E+01 -4.539838025781069E-03 -3.016036192637745E-05
-4.717500000000E+01 -4.543394842633033E-03 -3.019476000791066E-05
-4.715000000000E+01 -4.546936166310554E-03 -3.022919587767237E-05
-4.712500000000E+01 -4.550462475357459E-03 -3.026367013698703E-05
-4.710000000000E+01 -4.553974232188841E-03 -3.029818337129327E-05
-4.707500000000E+01 -4.557471883769772E-03 -3.033273615083036E-05
-4.705000000000E+01 -4.560955862260005E-03 -3.036732903128944E-05
-4.702500000000E+01 -4.564426585626493E-03 -3.040196255443388E-05
-4.700000000000E+01 -4.567884458226409E-03 -3.043663724868741E-05
-4.697500000000E+01 -4.571329871361458E-03 -3.047135362969563E-05
-4.695000000000E+01 -4.574763203805307E-03 -3.050611220085862E-05
-4.692500000000E+01 -4.578184822306161E-03 -3.054091345383953E-05
-4.690000000000E+01 -4.581595082065000E-03 -3.057575786904763E-05
-4.687500000000E+01 -4.584994327191572E-03 -3.061064591610070E-05
-4.685000000000E+01 -4.588382891138897E-03 -3.064557805426241E-05
-4.682500000000E+01 -4.591761097117648E-03 -3.068055473286247E-05
-4.680000000000E+01 -4.595129258491186E-03 -3.071557639169695E-05
-4.677500000000E+01 -4.598487679153192E-03 -3.075064346140854E-05
-4.675000000000E+01 -4.601836653887108E-03 -3.078575636385189E-05
-4.672500000000E+01 -4.605176468710400E-03 -3.082091551243997E-05
-4.670000000000E+01 -4.608507401202716E-03 -3.085612131247771E-05
-4.667500000000E+01 -4.611829720819783E-03 -3.089137416147905E-05
-4.665000000000E+01 -4.615143689193402E-03 -3.092667444946972E-05
-4.662500000000E+01 -4.618449560418327E-03 -3.096202255927877E-05
-4.660000000000E+01 -4.621747581326373E-03 -3.099741886681535E-05
-4.657500000000E+01 -4.625037991749298E-03 -3.103286374133529E-05
-4.655000000000E+01 -4.628321024769936E-03 -3.106835754569441E-05
-4.652500000000E+01 -4.631596906962678E-03 -3.110390063659331E-05
-4.650000000000E+01 -4.634865858623946E-03 -3.113949336480914E-05
-4.647500000000E+01 -4.638128093992965E-03 -3.117513607542150E-05
-4.645000000000E+01 -4.641383821463090E-03 -3.121082910802448E-05
-4.642500000000E+01 -4.644633243784981E-03 -3.124657279693338E-05
-4.640000000000E+01 -4.647876558260572E-03 -3.128236747138121E-05
-4.637500000000E+01 -4.651113956929846E-03 -3.131821345570827E-05
-4.635000000000E+01 -4.654345626749626E-03 -3.135411106954351E-05
-4.632500000000E+01 -4.657571749765279E-03 -3.139006062797782E-05
-4.630000000000E+01 -4.660792503275652E-03 -3.142606244173225E-05
-4.627500000000E+01 -4.664008059991177E-03 -3.146211681731825E-05
-4.625000000000E+01 -4.667218588185912E-03 -3.149822405719202E-05
-4.622500000000E+01 -4.670424251843799E-03 -3.153438445990301E-05
-4.620000000000E+01 -4.673625210798593E-03 -3.157059832023579E-05
-4.617500000000E+01 -4.676821620869218E-03 -3.160686592934772E-05
-4.615000000000E+01 -4.680013633989092E-03 -3.164318757490069E-05
-4.612500000000E+01 -4.683201398331091E-03 -3.167956354118828E-05
-4.610000000000E+01 -4.686385058427359E-03 -3.171599410925710E-05
-4.607500000000E+01 -4.689564755284997E-03 -3.175247955702441E-05
-4.605000000000E+01 -4.692740626496932E-03 -3.178902015939173E-05
-4.602500000000E+01 -4.695912806349125E-03 -3.182561618835405E-05
-4.600000000000E+01 -4.699081425923175E-03 -3.186226791310360E-05
-4.597500000000E+01 -4.702246613196108E-03 -3.189897560013169E-05
-4.595000000000E+01 -4.705408493135306E-03 -3.193573951332673E-05
-4.592500000000E+01 -4.708567187791084E-03 -3.197255991406688E-05
-4.590000000000E+01 -4.711722816385001E-03 -3.200943706131213E-05
-4.587500000000E+01 -4.714875495395809E-03 -3.204637121169072E-05
-4.585000000000E+01 -4.718025338641636E-03 -3.208336261958337E-05
-4.582500000000E+01 -4.721172457359717E-03 -3.212041153720607E-05
-4.580000000000E+01 -4.724316960282912E-03 -3.215751821468609E-05
-4.577500000000E+01 -4.727458953714002E-03 -3.219468290014078E-05
-4.575000000000E+01 -4.730598541596921E-03 -3.223190583974880E-05
-4.572500000000E+01 -4.733735825585779E-03 -3.226918727782103E-05
-4.570000000000E+01 -4.736870905111463E-03 -3.230652745686947E-05
-4.567500000000E+01 -4.740003877445969E-03 -3.234392661767381E-05
-4.565000000000E+01 -4.743134837764240E-03 -3.238138499934381E-05
-4.562500000000E+01 -4.746263879204485E-03 -3.241890283938194E-05
-4.560000000000E+01 -4.749391092925904E-03 -3.245648037374301E-05
-4.557500000000E+01 -4.752516568164685E-03 -3.249411783689208E-05
-4.555000000000E+01 -4.755640392288305E-03 -3.253181546185966E-05
-4.552500000000E+01 -4.758762650847606E-03 -3.256957348029622E-05
-4.550000000000E+01 -4.761883427627696E-03 -3.260739212252475E-05
-4.547500000000E+01 -4.765002804696608E-03 -3.264527161759104E-05
-4.545000000000E+01 -4.768120862452755E-03 -3.268321219331284E-05
-4.542500000000E+01 -4.771237679670691E-03 -3.272121407632689E-05
-4.540000000000E+01 -4.774353333545528E-03 -3.275927749213610E-05
-4.537500000000E+01 -4.777467899735692E-03 -3.279740266515282E-05
-4.535000000000E+01 -4.780581452404461E-03 -3.283558981874350E-05
-4.532500000000E+01 -4.783694064260232E-03 -3.287383917526878E-05
-4.530000000000E+01 -4.786805806595329E-03 -3.291215095612602E-05
-4.527500000000E+01 -4.789916749323697E-03 -3.295052538178745E-05
-4.525000000000E+01 -4.793026961017725E-03 -3.298896267183860E-05
-4.522500000000E+01 -4.796136508943052E-03 -3.302746304501577E-05
-4.520000000000E+01 -4.799245459093304E-03 -3.306602671924160E-05
-4.517500000000E+01 -4.802353876223157E-03 -3.310465391166038E-05
-4.515000000000E+01 -4.805461823880493E-03 -3.314334483867165E-05
-4.512500000000E+01 -4.808569364437682E-03 -3.318209971596337E-05
-4.510000000000E+01 -4.811676559121763E-03 -3.322091875854350E-05
-4.507500000000E+01 -4.814783468043921E-03 -3.325980218077194E-05
-4.505000000000E+01 -4.817890150227854E-03 -3.329875019638947E-05
-4.502500000000E+01 -4.820996663637371E-03 -3.333776301854801E-05
-4.500000000000E+01 -4.824103065203304E-03 -3.337684085983913E-05
-4.497500000000E+01 -4.827209410849368E-03 -3.341598393232141E-05
-4.495000000000E+01 -4.830315755517401E-03 -3.345519244754755E-05
-4.492500000000E+01 -4.833422153192010E-03 -3.349446661659035E-05
-4.490000000000E+01 -4.836528656924167E-03 -3.353380665006913E-05
-4.487500000000E+01 -4.839635318854410E-03 -3.357321275817325E-05
-4.485000000000E+01 -4.842742190235154E-03 -3.361268515068763E-05
-4.482500000000E+01 -4.845849321452469E-03 -3.365222403701490E-05
-4.480000000000E+01 -4.848956762047414E-03 -3.369182962619939E-05
-4.477500000000E+01 -4.852064560736372E-03 -3.373150212694950E-05
-4.475000000000E+01 -4.855172765431009E-03 -3.377124174765842E-05
-4.472500000000E+01 -4.858281423257838E-03 -3.381104869642627E-05
-4.470000000000E+01 -4.861390580576867E-03 -3.385092318108007E-05
-4.467500000000E+01 -4.864500283000184E-03 -3.389086540919453E-05
-4.465000000000E+01 -4.867610575409417E-03 -3.393087558811136E-05
-4.462500000000E+01 -4.870721501973443E-03 -3.397095392495787E-05
-4.460000000000E+01 -4.873833106164836E-03 -3.401110062666684E-05
-4.457500000000E+01 -4.876945430776604E-03 -3.405131589999350E-05
-4.455000000000E+01 -4.880058517937895E-03 -3.409159995153382E-05
-4.452500000000E+01 -4.883172409129630E-03 -3.413195298774199E-05
-4.450000000000E+01 -4.886287145199380E-03 -3.417237521494719E-05
-4.447500000000E+01 -4.889402766376281E-03 -3.421286683936984E-05
-4.445000000000E+01 -4.892519312285248E-03 -3.425342806713821E-05
-4.442500000000E+01 -4.895636821960729E-03 -3.429405910430358E-05
-4.440000000000E+01 -4.898755333860251E-03 -3.433476015685670E-05
-4.437500000000E+01 -4.901874885877926E-03 -3.437553143074168E-05
-4.435000000000E+01 -4.904995515356811E-03 -3.441637313187055E-05
-4.432500000000E+01 -4.908117259101660E-03 -3.445728546613958E-05
-4.430000000000E+01 -4.911240153391053E-03 -3.449826863944099E-05
-4.427500000000E+01 -4.914364233989095E-03 -3.453932285767788E-05
-4.425000000000E+01 -4.917489536157191E-03 -3.458044832677805E-05
-4.422500000000E+01 -4.920616094665195E-03 -3.462164525270560E-05
-4.420000000000E+01 -4.923743943802087E-03 -3.466291384147558E-05
-4.417500000000E+01 -4.926873117387117E-03 -3.470425429916593E-05
-4.415000000000E+01 -4.930003648779890E-03 -3.474566683192926E-05
-4.412500000000E+01 -4.933135570890562E-03 -3.478715164600542E-05
-4.410000000000E+01 -4.936268916189781E-03 -3.482870894773342E-05
-4.407500000000E+01 -4.939403716718235E-03 -3.487033894356356E-05
-4.405000000000E+01 -4.942540004096030E-03 -3.491204184006712E-05
-4.402500000000E+01 -4.945677809532063E-03 -3.495381784394943E-05
-4.400000000000E+01 -4.948817163832653E-03 -3.499566716205957E-05
-4.397500000000E+01 -4.951958097410429E-03 -3.503759000140096E-05
-4.395000000000E+01 -4.955100640292767E-03 -3.507958656914367E-05
-4.392500000000E+01 -4.958244822130154E-03 -3.512165707263159E-05
-4.390000000000E+01 -4.961390672204127E-03 -3.516380171939594E-05
-4.387500000000E+01 -4.964538219435335E-03 -3.520602071716340E-05
-4.385000000000E+01 -4.967687492391085E-03 -3.524831427386479E-05
-4.382500000000E+01 -4.970838519292971E-03 -3.529068259764708E-05
-4.380000000000E+01 -4.973991328024164E-03 -3.533312589688169E-05
-4.377500000000E+01 -4.977145946136539E-03 -3.537564438017299E-05
-4.375000000000E+01 -4.980302400857658E-03 -3.541823825636807E-05
-4.372500000000E+01 -4.983460719097687E-03 -3.546090773456652E-05
-4.370000000000E+01 -4.986620927455990E-03 -3.550365302412721E-05
-4.367500000000E+01 -4.989783052227600E-03 -3.554647433467873E-05
-4.365000000000E+01 -4.992947119409668E-03 -3.558937187612647E-05
-4.362500000000E+01 -4.996113154707570E-03 -3.563234585866224E-05
-4.360000000000E+01 -4.999281183541014E-03 -3.567539649277131E-05
-4.357500000000E+01 -5.002451231049987E-03 -3.571852398924128E-05
-4.355000000000E+01 -5.005623322100493E-03 -3.576172855917000E-05
-4.352500000000E+01 -5.008797481290250E-03 -3.580501041397212E-05
-4.350000000000E+01 -5.011973732954161E-03 -3.584836976538933E-05
-4.347500000000E+01 -5.015152101169867E-03 -3.589180682549506E-05
-4.345000000000E+01 -5.018332609762615E-03 -3.593532180670363E-05
-4.342500000000E+01 -5.021515282311067E-03 -3.597891492177806E-05
-4.340000000000E+01 -5.024700142151639E-03 -3.602258638383536E-05
-4.337500000000E+01 -5.027887212384004E-03 -3.606633640635604E-05
-4.335000000000E+01 -5.031076515875606E-03 -3.611016520318918E-05
-4.332500000000E+01 -5.034268075266373E-03 -3.615407298856035E-05
-4.330000000000E+01 -5.037461912973476E-03 -3.619805997707890E-05
-4.327500000000E+01 -5.040658051195730E-03 -3.624212638374340E-05
-4.325000000000E+01 -5.043856511918027E-03 -3.628627242394912E-05
-4.322500000000E+01 -5.047057316915685E-03 -3.633049831349568E-05
-4.320000000000E+01 -5.050260487758499E-03 -3.637480426859083E-05
-4.317500000000E+01 -5.053466045815175E-03 -3.641919050586030E-05
-4.315000000000E+01 -5.056674012257119E-03 -3.646365724235101E-05
-4.312500000000E+01 -5.059884408062449E-03 -3.650820469553938E-05
-4.310000000000E+01 -5.063097254019862E-03 -3.655283308333644E-05
-4.307500000000E+01 -5.066312570732513E-03 -3.659754262409530E-05
-4.305000000000E+01 -5.069530378621533E-03 -3.664233353661505E-05
-4.302500000000E+01 -5.072750697929848E-03 -3.668720604014925E-05
-4.300000000000E+01 -5.075973548725683E-03 -3.673216035441012E-05
-4.297500000000E+01 -5.079198950905854E-03 -3.677719669957484E-05
-4.295000000000E+01 -5.082426924199433E-03 -3.682231529629150E-05
-4.292500000000E+01 -5.085657488170849E-03 -3.686751636568471E-05
-4.290000000000E+01 -5.088890662223468E-03 -3.691280012936144E-05
-4.287500000000E+01 -5.092126465602424E-03 -3.695816680941713E-05
-4.285000000000E+01 -5.095364917397919E-03 -3.700361662843977E-05
-4.282500000000E+01 -5.098606036548292E-03 -3.704914980951752E-05
-4.280000000000E+01 -5.101849841843178E-03 -3.709476657624140E-05
-4.277500000000E+01 -5.105096351926018E-03 -3.714046715271392E-05
-4.275000000000E+01 -5.108345585297342E-03 -3.718625176355212E-05
-4.272500000000E+01 -5.111597560317548E-03 -3.723212063389401E-05
-4.270000000000E+01 -5.114852295209474E-03 -3.727807398940289E-05
-4.267500000000E+01 -5.118109808061200E-03 -3.732411205627430E-05
-4.265000000000E+01 -5.121370116828850E-03 -3.737023506123891E-05
-4.262500000000E+01 -5.124633239339023E-03 -3.741644323156982E-05
-4.260000000000E+01 -5.127899193291282E-03 -3.746273679508640E-05
-4.257500000000E+01 -5.131167996260979E-03 -3.750911598015950E-05
