#Spectra: 1
Emin______Emax      -5.000000000000000E+01  5.000000000000000E+01
EminPole__EmaxPole  -4.423169185910979E+00  1.817140894532724E+01
dE________Gamma      2.500000000000000E-02  1.000000000000000E-01
Energy               Re[0]                  Im[0]                
-5.000000000000E+01 -2.299026359401576E-03 -2.475340132532316E-05
-4.997500000000E+01 -2.438184464712630E-03 -2.492003101401666E-05
-4.995000000000E+01 -2.573449457430598E-03 -2.508279731802028E-05
-4.992500000000E+01 -2.702658073022733E-03 -2.523948861584953E-05
-4.990000000000E+01 -2.824239061726150E-03 -2.538849685186094E-05
-4.987500000000E+01 -2.937250402312552E-03 -2.552885586558723E-05
-4.985000000000E+01 -3.041314877477371E-03 -2.566017592004729E-05
-4.982500000000E+01 -3.136499400076786E-03 -2.578252073861658E-05
-4.980000000000E+01 -3.223180541754580E-03 -2.589627038356350E-05
-4.977500000000E+01 -3.301923974359845E-03 -2.600199827434347E-05
-4.975000000000E+01 -3.373390077363730E-03 -2.610037486941478E-05
-4.972500000000E+01 -3.438267196475781E-03 -2.619209954263312E-05
-4.970000000000E+01 -3.497228555073405E-03 -2.627785658473290E-05
-4.967500000000E+01 -3.550907095653533E-03 -2.635828949683374E-05
-4.965000000000E+01 -3.599882818085259E-03 -2.643398803564295E-05
-4.962500000000E+01 -3.644678252160684E-03 -2.650548356084273E-05
-4.960000000000E+01 -3.685758883380682E-03 -2.657324943962709E-05
-4.957500000000E+01 -3.723536359974805E-03 -2.663770429239529E-05
-4.955000000000E+01 -3.758373072832475E-03 -2.669921664251986E-05
-4.952500000000E+01 -3.790587237640002E-03 -2.675811008152519E-05
-4.950000000000E+01 -3.820457968601534E-03 -2.681466842835712E-05
-4.947500000000E+01 -3.848230065103437E-03 -2.686914059811985E-05
-4.945000000000E+01 -3.874118377002430E-03 -2.692174504292523E-05
-4.942500000000E+01 -3.898311700745981E-03 -2.697267371581334E-05
-4.940000000000E+01 -3.920976208046260E-03 -2.702209555925348E-05
-4.937500000000E+01 -3.942258435253099E-03 -2.707015954673021E-05
-4.935000000000E+01 -3.962287873964207E-03 -2.711699731858761E-05
-4.932500000000E+01 -3.981179207557317E-03 -2.716272545756541E-05
-4.930000000000E+01 -3.999034237834650E-03 -2.720744744897979E-05
-4.927500000000E+01 -4.015943543054032E-03 -2.725125536754259E-05
-4.925000000000E+01 -4.031987904599157E-03 -2.729423132873096E-05
-4.922500000000E+01 -4.047239535191507E-03 -2.733644873819321E-05
-4.920000000000E+01 -4.061763137288686E-03 -2.737797336834478E-05
-4.917500000000E+01 -4.075616816365058E-03 -2.741886428729123E-05
-4.915000000000E+01 -4.088852870231835E-03 -2.745917466161285E-05
-4.912500000000E+01 -4.101518472443270E-03 -2.749895245137798E-05
-4.910000000000E+01 -4.113656265140174E-03 -2.753824101301245E-05
-4.907500000000E+01 -4.125304874374179E-03 -2.757707962329693E-05
-4.905000000000E+01 -4.136499358982207E-03 -2.761550393576182E-05
-4.902500000000E+01 -4.147271602411147E-03 -2.765354637904452E-05
-4.900000000000E+01 -4.157650655476905E-03 -2.769123650533415E-05
-4.897500000000E+01 -4.167663036844188E-03 -2.772860129581049E-05
-4.895000000000E+01 -4.177332997006475E-03 -2.776566542895927E-05
-4.892500000000E+01 -4.186682750690483E-03 -2.780245151677154E-05
-4.890000000000E+01 -4.195732681890212E-03 -2.783898031310990E-05
-4.887500000000E+01 -4.204501525127666E-03 -2.787527089789740E-05
-4.885000000000E+01 -4.213006526021176E-03 -2.791134084026669E-05
-4.882500000000E+01 -4.221263583806596E-03 -2.794720634335833E-05
-4.880000000000E+01 -4.229287378086655E-03 -2.798288237308483E-05
-4.877500000000E+01 -4.237091481768740E-03 -2.801838277285276E-05
-4.875000000000E+01 -4.244688461883861E-03 -2.805372036596524E-05
-4.872500000000E+01 -4.252089969751210E-03 -2.808890704719558E-05
-4.870000000000E+01 -4.259306821758334E-03 -2.812395386482086E-05
-4.867500000000E+01 -4.266349071858138E-03 -2.815887109423872E-05
-4.865000000000E+01 -4.273226076743825E-03 -2.819366830414209E-05
-4.862500000000E+01 -4.279946554536852E-03 -2.822835441610227E-05
-4.860000000000E+01 -4.286518637719523E-03 -2.826293775830382E-05
-4.857500000000E+01 -4.292949920951102E-03 -2.829742611408113E-05
-4.855000000000E+01 -4.299247504328767E-03 -2.833182676582796E-05
-4.852500000000E+01 -4.305418032584858E-03 -2.836614653477668E-05
-4.850000000000E+01 -4.311467730654658E-03 -2.840039181709344E-05
-4.847500000000E+01 -4.317402435996324E-03 -2.843456861667231E-05
-4.845000000000E+01 -4.323227627999699E-03 -2.846868257497399E-05
-4.842500000000E+01 -4.328948454782932E-03 -2.850273899821087E-05
-4.840000000000E+01 -4.334569757640543E-03 -2.853674288214851E-05
-4.837500000000E+01 -4.340096093377480E-03 -2.857069893475872E-05
-4.835000000000E+01 -4.345531754737742E-03 -2.860461159693991E-05
-4.832500000000E+01 -4.350880789112095E-03 -2.863848506148862E-05
-4.830000000000E+01 -4.356147015691478E-03 -2.867232329049490E-05
-4.827500000000E+01 -4.361334041212171E-03 -2.870613003130658E-05
-4.825000000000E+01 -4.366445274425486E-03 -2.873990883119974E-05
-4.822500000000E+01 -4.371483939409805E-03 -2.877366305087519E-05
-4.820000000000E+01 -4.376453087830772E-03 -2.880739587688504E-05
-4.817500000000E+01 -4.381355610244511E-03 -2.884111033309076E-05
-4.815000000000E+01 -4.386194246529511E-03 -2.887480929123581E-05
-4.812500000000E+01 -4.390971595523742E-03 -2.890849548071171E-05
-4.810000000000E+01 -4.395690123936686E-03 -2.894217149758964E-05
-4.807500000000E+01 -4.400352174598070E-03 -2.897583981297816E-05
-4.805000000000E+01 -4.404959974100690E-03 -2.900950278076620E-05
-4.802500000000E+01 -4.409515639887459E-03 -2.904316264480351E-05
-4.800000000000E+01 -4.414021186829513E-03 -2.907682154556377E-05
-4.797500000000E+01 -4.418478533337072E-03 -2.911048152633461E-05
-4.795000000000E+01 -4.422889507041326E-03 -2.914414453897223E-05
-4.792500000000E+01 -4.427255850081272E-03 -2.917781244925551E-05
-4.790000000000E+01 -4.431579224027917E-03 -2.921148704187275E-05
-4.787500000000E+01 -4.435861214473400E-03 -2.924517002506822E-05
-4.785000000000E+01 -4.440103335312019E-03 -2.927886303497733E-05
-4.782500000000E+01 -4.444307032736517E-03 -2.931256763967196E-05
-4.780000000000E+01 -4.448473688971372E-03 -2.934628534293982E-05
-4.777500000000E+01 -4.452604625762714E-03 -2.938001758781782E-05
-4.775000000000E+01 -4.456701107644188E-03 -2.941376575989699E-05
-4.772500000000E+01 -4.460764344993668E-03 -2.944753119041657E-05
-4.770000000000E+01 -4.464795496897408E-03 -2.948131515916303E-05
-4.767500000000E+01 -4.468795673835256E-03 -2.951511889718709E-05
-4.765000000000E+01 -4.472765940199518E-03 -2.954894358935200E-05
-4.762500000000E+01 -4.476707316659750E-03 -2.958279037672777E-05
-4.760000000000E+01 -4.480620782383956E-03 -2.961666035883723E-05
-4.757500000000E+01 -4.484507277126324E-03 -2.965055459576865E-05
-4.755000000000E+01 -4.488367703191041E-03 -2.968447411016306E-05
-4.752500000000E+01 -4.492202927279910E-03 -2.971841988908205E-05
-4.750000000000E+01 -4.496013782232484E-03 -2.975239288576904E-05
-4.747500000000E+01 -4.499801068665668E-03 -2.978639402130720E-05
-4.745000000000E+01 -4.503565556518829E-03 -2.982042418618285E-05
-4.742500000000E+01 -4.507307986511987E-03 -2.985448424175872E-05
-4.740000000000E+01 -4.511029071521292E-03 -2.988857502166732E-05
-4.737500000000E+01 -4.514729497878185E-03 -2.992269733312248E-05
-4.735000000000E+01 -4.518409926596919E-03 -2.995685195816185E-05
-4.732500000000E+01 -4.522070994534447E-03 -2.999103965482072E-05
-4.730000000000E+01 -4.525713315487820E-03 -3.002526115823918E-05
-4.727500000000E+01 -4.529337481232276E-03 -3.005951718171410E-05
-4.725000000000E+01 -4.532944062504132E-03 -3.009380841769166E-05
-4.722500000000E+01 -4.536533609931605E-03 -3.012813553870903E-05
-4.720000000000E+01 -4.540106654916892E-03 -3.016249919828614E-05
-4.717500000000E+01 -4.543663710472374E-03 -3.019690003177106E-05
-4.715000000000E+01 -4.547205272013941E-03 -3.023133865714162E-05
-4.712500000000E+01 -4.550731818113290E-03 -3.026581567576715E-05
-4.710000000000E+01 -4.554243811212739E-03 -3.030033167313020E-05
-4.707500000000E+01 -4.557741698303534E-03 -3.033488721951250E-05
-4.705000000000E+01 -4.561225911570598E-03 -3.036948287064687E-05
-4.702500000000E+01 -4.564696869005526E-03 -3.040411916833741E-05
-4.700000000000E+01 -4.568154974989098E-03 -3.043879664104766E-05
-4.697500000000E+01 -4.571600620845973E-03 -3.047351580446204E-05
-4.695000000000E+01 -4.575034185372005E-03 -3.050827716201887E-05
-4.692500000000E+01 -4.578456035336908E-03 -3.054308120541843E-05
-4.690000000000E+01 -4.581866525962530E-03 -3.057792841510690E-05
-4.687500000000E+01 -4.585266001378764E-03 -3.061281926073686E-05
-4.685000000000E+01 -4.588654795058201E-03 -3.064775420160797E-05
-4.682500000000E+01 -4.592033230230389E-03 -3.068273368708370E-05
-4.680000000000E+01 -4.595401620277315E-03 -3.071775815699452E-05
-4.677500000000E+01 -4.598760269110201E-03 -3.075282804201561E-05
-4.675000000000E+01 -4.602109471529987E-03 -3.078794376403398E-05
-4.672500000000E+01 -4.605449513570885E-03 -3.082310573649531E-05
-4.670000000000E+01 -4.608780672828878E-03 -3.085831436473535E-05
-4.667500000000E+01 -4.612103218775522E-03 -3.089357004629888E-05
-4.665000000000E+01 -4.615417413057968E-03 -3.092887317124197E-05
-4.662500000000E+01 -4.618723509785849E-03 -3.096422412242394E-05
-4.660000000000E+01 -4.622021755805679E-03 -3.099962327578268E-05
-4.657500000000E+01 -4.625312390963215E-03 -3.103507100060318E-05
-4.655000000000E+01 -4.628595648354990E-03 -3.107056765977017E-05
-4.652500000000E+01 -4.631871754568698E-03 -3.110611361001144E-05
-4.650000000000E+01 -4.635140929913849E-03 -3.114170920213293E-05
-4.647500000000E+01 -4.638403388642159E-03 -3.117735478124031E-05
-4.645000000000E+01 -4.641659339159422E-03 -3.121305068695558E-05
-4.642500000000E+01 -4.644908984228144E-03 -3.124879725362019E-05
-4.640000000000E+01 -4.648152521161845E-03 -3.128459481049328E-05
-4.637500000000E+01 -4.651390142011982E-03 -3.132044368194141E-05
-4.635000000000E+01 -4.654622033746252E-03 -3.135634418761855E-05
-4.632500000000E+01 -4.657848378420875E-03 -3.139229664264136E-05
-4.630000000000E+01 -4.661069353345097E-03 -3.142830135775577E-05
-4.627500000000E+01 -4.664285131239621E-03 -3.146435863949784E-05
-4.625000000000E+01 -4.667495880388496E-03 -3.150046879034828E-05
-4.622500000000E+01 -4.670701764785212E-03 -3.153663210888049E-05
-4.620000000000E+01 -4.673902944273033E-03 -3.157284888990316E-05
-4.617500000000E+01 -4.677099574680173E-03 -3.160911942459758E-05
-4.615000000000E+01 -4.680291807948963E-03 -3.164544400064878E-05
-4.612500000000E+01 -4.683479792261097E-03 -3.168182290237357E-05
-4.610000000000E+01 -4.686663672157272E-03 -3.171825641084169E-05
-4.607500000000E+01 -4.689843588652971E-03 -3.175474480399307E-05
-4.605000000000E+01 -4.693019679349292E-03 -3.179128835675232E-05
-4.602500000000E+01 -4.696192078540038E-03 -3.182788734113611E-05
-4.600000000000E+01 -4.699360917314791E-03 -3.186454202635958E-05
-4.597500000000E+01 -4.702526323657994E-03 -3.190125267893561E-05
-4.595000000000E+01 -4.705688422544606E-03 -3.193801956277476E-05
-4.592500000000E+01 -4.708847336032079E-03 -3.197484293927707E-05
-4.590000000000E+01 -4.712003183349164E-03 -3.201172306742390E-05
-4.587500000000E+01 -4.715156080981487E-03 -3.204866020386498E-05
-4.585000000000E+01 -4.718306142754015E-03 -3.208565460300256E-05
-4.582500000000E+01 -4.721453479910558E-03 -3.212270651707311E-05
-4.580000000000E+01 -4.724598201190456E-03 -3.215981619622589E-05
-4.577500000000E+01 -4.727740412902857E-03 -3.219698388859852E-05
-4.575000000000E+01 -4.730880218997931E-03 -3.223420984039022E-05
-4.572500000000E+01 -4.734017721135794E-03 -3.227149429593313E-05
-4.570000000000E+01 -4.737153018753348E-03 -3.230883749775971E-05
-4.567500000000E+01 -4.740286209128327E-03 -3.234623968666967E-05
-4.565000000000E+01 -4.743417387441475E-03 -3.238370110179324E-05
-4.562500000000E+01 -4.746546646836512E-03 -3.242122198065363E-05
-4.560000000000E+01 -4.749674078478093E-03 -3.245880255922513E-05
-4.557500000000E+01 -4.752799771607834E-03 -3.249644307199333E-05
-4.555000000000E+01 -4.755923813598370E-03 -3.253414375200840E-05
-4.552500000000E+01 -4.759046290005762E-03 -3.257190483094096E-05
-4.550000000000E+01 -4.762167284620107E-03 -3.260972653913368E-05
-4.547500000000E+01 -4.765286879514367E-03 -3.264760910565218E-05
-4.545000000000E+01 -4.768405155091817E-03 -3.268555275833332E-05
-4.542500000000E+01 -4.771522190131795E-03 -3.272355772383411E-05
-4.540000000000E+01 -4.774638061833992E-03 -3.276162422767686E-05
-4.537500000000E+01 -4.777752845861414E-03 -3.279975249429331E-05
-4.535000000000E+01 -4.780866616381917E-03 -3.283794274706899E-05
-4.532500000000E+01 -4.783979446108167E-03 -3.287619520838461E-05
-4.530000000000E+01 -4.787091406336851E-03 -3.291451009965629E-05
-4.527500000000E+01 -4.790202566986256E-03 -3.295288764137563E-05
-4.525000000000E+01 -4.793312996632719E-03 -3.299132805314707E-05
-4.522500000000E+01 -4.796422762546124E-03 -3.302983155372663E-05
-4.520000000000E+01 -4.799531930724055E-03 -3.306839836105581E-05
-4.517500000000E+01 -4.802640565925076E-03 -3.310702869229790E-05
-4.515000000000E+01 -4.805748731700989E-03 -3.314572276387155E-05
-4.512500000000E+01 -4.808856490427932E-03 -3.318448079148394E-05
-4.510000000000E+01 -4.811963903336739E-03 -3.322330299016156E-05
-4.507500000000E+01 -4.815071030542258E-03 -3.326218957428332E-05
-4.505000000000E+01 -4.818177931071709E-03 -3.330114075760908E-05
-4.502500000000E+01 -4.821284662892486E-03 -3.334015675330976E-05
-4.500000000000E+01 -4.824391282938894E-03 -3.337923777399558E-05
-4.497500000000E+01 -4.827497847138130E-03 -3.341838403174395E-05
-4.495000000000E+01 -4.830604410435324E-03 -3.345759573812643E-05
-4.492500000000E+01 -4.833711026818440E-03 -3.349687310423472E-05
-4.490000000000E+01 -4.836817749341764E-03 -3.353621634070680E-05
-4.487500000000E+01 -4.839924630148938E-03 -3.357562565775082E-05
-4.485000000000E+01 -4.843031720495554E-03 -3.361510126517030E-05
-4.482500000000E+01 -4.846139070770867E-03 -3.365464337238700E-05
-4.480000000000E+01 -4.849246730518881E-03 -3.369425218846381E-05
-4.477500000000E+01 -4.852354748459074E-03 -3.373392792212752E-05
-4.475000000000E+01 -4.855463172506079E-03 -3.377367078179045E-05
-4.472500000000E+01 -4.858572049789275E-03 -3.381348097557114E-05
-4.470000000000E+01 -4.861681426671607E-03 -3.385335871131552E-05
-4.467500000000E+01 -4.864791348767913E-03 -3.389330419661730E-05
-4.465000000000E+01 -4.867901860962722E-03 -3.393331763883617E-05
-4.462500000000E+01 -4.871013007427512E-03 -3.397339924511868E-05
-4.460000000000E+01 -4.874124831637674E-03 -3.401354922241610E-05
-4.457500000000E+01 -4.877237376388902E-03 -3.405376777750223E-05
-4.455000000000E+01 -4.880350683812926E-03 -3.409405511699225E-05
-4.452500000000E+01 -4.883464795393250E-03 -3.413441144735862E-05
-4.450000000000E+01 -4.886579751980093E-03 -3.417483697494939E-05
-4.447500000000E+01 -4.889695593805001E-03 -3.421533190600357E-05
-4.445000000000E+01 -4.892812360495400E-03 -3.425589644666837E-05
-4.442500000000E+01 -4.895930091088207E-03 -3.429653080301394E-05
-4.440000000000E+01 -4.899048824043448E-03 -3.433723518104970E-05
-4.437500000000E+01 -4.902168597257547E-03 -3.437800978673802E-05
-4.435000000000E+01 -4.905289448075895E-03 -3.441885482601067E-05
-4.432500000000E+01 -4.908411413305632E-03 -3.445977050478202E-05
-4.430000000000E+01 -4.911534529227548E-03 -3.450075702896319E-05
-4.427500000000E+01 -4.914658831608167E-03 -3.454181460447659E-05
-4.425000000000E+01 -4.917784355711049E-03 -3.458294343726810E-05
-4.422500000000E+01 -4.920911136308193E-03 -3.462414373332135E-05
-4.420000000000E+01 -4.924039207690844E-03 -3.466541569867043E-05
-4.417500000000E+01 -4.927168603680397E-03 -3.470675953941143E-05
-4.415000000000E+01 -4.930299357638602E-03 -3.474817546171607E-05
-4.412500000000E+01 -4.933431502477690E-03 -3.478966367184384E-05
-4.410000000000E+01 -4.936565070670371E-03 -3.483122437615272E-05
-4.407500000000E+01 -4.939700094259370E-03 -3.487285778111095E-05
-4.405000000000E+01 -4.942836604867016E-03 -3.491456409330954E-05
-4.402500000000E+01 -4.945974633703972E-03 -3.495634351947317E-05
-4.400000000000E+01 -4.949114211578635E-03 -3.499819626646943E-05
-4.397500000000E+01 -4.952255368905585E-03 -3.504012254132139E-05
-4.395000000000E+01 -4.955398135714200E-03 -3.508212255121771E-05
-4.392500000000E+01 -4.958542541656821E-03 -3.512419650352216E-05
-4.390000000000E+01 -4.961688616016977E-03 -3.516634460578457E-05
-4.387500000000E+01 -4.964836387717054E-03 -3.520856706575055E-05
-4.385000000000E+01 -4.967985885326334E-03 -3.525086409137127E-05
-4.382500000000E+01 -4.971137137068180E-03 -3.529323589081214E-05
-4.380000000000E+01 -4.974290170827590E-03 -3.533568267246459E-05
-4.377500000000E+01 -4.977445014158269E-03 -3.537820464495131E-05
-4.375000000000E+01 -4.980601694289581E-03 -3.542080201714012E-05
-4.372500000000E+01 -4.983760238133411E-03 -3.546347499814886E-05
-4.370000000000E+01 -4.986920672290892E-03 -3.550622379735670E-05
-4.367500000000E+01 -4.990083023058790E-03 -3.554904862441106E-05
-4.365000000000E+01 -4.993247316435977E-03 -3.559194968923774E-05
-4.362500000000E+01 -4.996413578129474E-03 -3.563492720204713E-05
-4.360000000000E+01 -4.999581833560743E-03 -3.567798137334513E-05
-4.357500000000E+01 -5.002752107871427E-03 -3.572111241393836E-05
-4.355000000000E+01 -5.005924425929109E-03 -3.576432053494428E-05
-4.352500000000E+01 -5.009098812333267E-03 -3.580760594779794E-05
-4.350000000000E+01 -5.012275291420312E-03 -3.585096886426000E-05
-4.347500000000E+01 -5.015453887269438E-03 -3.589440949642424E-05
-4.345000000000E+01 -5.018634623707733E-03 -3.593792805672493E-05
-4.342500000000E+01 -5.021817524315172E-03 -3.598152475794463E-05
-4.340000000000E+01 -5.025002612429953E-03 -3.602519981322076E-05
-4.337500000000E+01 -5.028189911153130E-03 -3.606895343605327E-05
-4.335000000000E+01 -5.031379443353716E-03 -3.611278584031174E-05
-4.332500000000E+01 -5.034571231673239E-03 -3.615669724024177E-05
-4.330000000000E+01 -5.037765298530354E-03 -3.620068785047224E-05
-4.327500000000E+01 -5.040961666125397E-03 -3.624475788602250E-05
-4.325000000000E+01 -5.044160356444693E-03 -3.628890756230854E-05
-4.322500000000E+01 -5.047361391265070E-03 -3.633313709514900E-05
-4.320000000000E+01 -5.050564792157834E-03 -3.637744670077306E-05
-4.317500000000E+01 -5.053770580493111E-03 -3.642183659582602E-05
-4.315000000000E+01 -5.056978777443689E-03 -3.646630699737588E-05
-4.312500000000E+01 -5.060189403989221E-03 -3.651085812291910E-05
-4.310000000000E+01 -5.063402480919786E-03 -3.655549019038738E-05
-4.307500000000E+01 -5.066618028839949E-03 -3.660020341815445E-05
-4.305000000000E+01 -5.069836068172272E-03 -3.664499802504008E-05
-4.302500000000E+01 -5.073056619161103E-03 -3.668987423031821E-05
-4.300000000000E+01 -5.076279701875910E-03 -3.673483225372204E-05
-4.297500000000E+01 -5.079505336215053E-03 -3.677987231544906E-05
-4.295000000000E+01 -5.082733541908826E-03 -3.682499463616887E-05
-4.292500000000E+01 -5.085964338523177E-03 -3.687019943702670E-05
-4.290000000000E+01 -5.089197745462700E-03 -3.691548693965054E-05
-4.287500000000E+01 -5.092433781973917E-03 -3.696085736615677E-05
-4.285000000000E+01 -5.095672467148310E-03 -3.700631093915417E-05
-4.282500000000E+01 -5.098913819925690E-03 -3.705184788175195E-05
-4.280000000000E+01 -5.102157859096813E-03 -3.709746841756277E-05
-4.277500000000E+01 -5.105404603306501E-03 -3.714317277071012E-05
-4.275000000000E+01 -5.108654071056734E-03 -3.718896116583260E-05
-4.272500000000E+01 -5.111906280709008E-03 -3.723483382808870E-05
-4.270000000000E+01 -5.115161250487481E-03 -3.728079098316421E-05
-4.267500000000E+01 -5.118418998481590E-03 -3.732683285727521E-05
-4.265000000000E+01 -5.121679542648671E-03 -3.737295967717441E-05
-4.262500000000E+01 -5.124942900816566E-03 -3.741917167015615E-05
-4.260000000000E+01 -5.128209090686201E-03 -3.746546906406178E-05
-4.257500000000E+01 -5.131478129834104E-03 -3.751185208728318E-05
